46,1717964915294,ECG,-0.26887712332784025
25,1717964915267,ECG,-0.4326101067673379
28,1717964915284,ECG,-0.5818109085906469
47,1717964915274,ECG,-0.3091233085565813
3,1717964915269,ECG,-0.13030678185168695
39,1717964915302,ECG,0.13301934865298648
23,1717964915271,ECG,0.31488813720560177
33,1717964915283,ECG,0.19264108045102935
49,1717965008099,ECG,0.13362319449831456
42,1717965008092,ECG,-0.5958486855916816
43,1717965008091,ECG,-0.04633135674010945
14,1717965008096,ECG,-0.5413447000599425
33,1717965008112,ECG,-0.4844234233612241
6,1717965008093,ECG,-0.46263946043320153
10,1717965008094,ECG,0.6419045133149484
29,1717965008093,ECG,-0.16731949458356019
16,1717965008116,ECG,-0.018830473860760883
27,1717965008095,ECG,-0.24581523331030078
8,1717965008095,ECG,-0.07043074466729324
28,1717965008102,ECG,0.04591460932256546
40,1717965027486,ECG,-0.35252860041916867
4,1717965027494,ECG,-0.4812193419935696
7,1717965027473,ECG,0.25698235761639976
27,1717965027471,ECG,-0.6065160708896438
22,1717965027483,ECG,0.4593110500171564
44,1717965027473,ECG,0.7318217297438956
19,1717965027490,ECG,0.06277492539793814
6,1717965027480,ECG,-0.5018700719228052
47,1717965242488,ECG,0.28263874119612087
13,1717965242480,ECG,0.5223585481720479
1,1717965242478,ECG,0.4627265053689917
9,1717965242503,ECG,0.33235865995952674
19,1717965242480,ECG,0.1312793235815189
7,1717965242499,ECG,0.26589166795677255
45,1717965242484,ECG,-0.20993635737936914
26,1717965242483,ECG,0.3177369588425699
14,1717965242497,ECG,0.23122118488378451
6,1717965242485,ECG,0.49246578092972226
23,1717965303470,ECG,-0.22573297435727788
40,1717965303467,ECG,-0.502938689857846
13,1717965303474,ECG,0.51812084622351
34,1717965303475,ECG,-0.4565407203883846
39,1717965303469,ECG,-0.517623187685438
33,1717965303466,ECG,0.1744731619490199
15,1717965303490,ECG,-0.33434255718888806
44,1717965303480,ECG,0.4533323782015934
50,1717965303466,ECG,0.22851592489750883
4,1717965303485,ECG,0.2732728030429312
31,1717965303469,ECG,0.1771799676365862
49,1717965303481,ECG,0.018783076927033827
20,1717965303470,ECG,-0.03651662835655345
18,1717965363469,ECG,0.0842182085851515
33,1717965363469,ECG,-0.4047060964940907
50,1717965363469,ECG,0.20358848845183825
14,1717965363470,ECG,0.3065424027700171
20,1717965363470,ECG,-0.10653644518485957
40,1717965363470,ECG,0.7484651148268492
42,1717965363470,ECG,0.7674460396280279
31,1717965363470,ECG,-0.10165291117867284
39,1717965363470,ECG,0.4767696778297284
23,1717965363470,ECG,0.24647145108152763
5,1717965363470,ECG,0.2777196246956552
37,1717965363474,ECG,0.3030489639918777
13,1717965363474,ECG,-0.40345329201792984
9,1717965363475,ECG,0.04741529337923258
34,1717965363475,ECG,0.5426650435818068
44,1717965363480,ECG,0.17878225410926368
49,1717965363481,ECG,0.27954695376913263
10,1717965363482,ECG,0.48843843365617023
4,1717965363485,ECG,-0.49996356223675725
12,1717965363488,ECG,-0.09325890162492213
43,1717965363489,ECG,0.5744968283403177
15,1717965363491,ECG,-0.4068639532970171
37,1717965435420,ECG,0.054631964609723624
36,1717965435440,ECG,0.258456546049216
27,1717965435435,ECG,0.10434638040853515
30,1717965435428,ECG,-0.5062908118951231
5,1717965435437,ECG,0.24357189450674044
48,1717965435415,ECG,-0.30166400489214584
1,1717965435438,ECG,0.549708114718054
19,1717965435436,ECG,0.37142977740170224
33,1717965435436,ECG,0.051993703884319495
18,1717965436413,ECG,-0.17662678461494577
48,1717965436415,ECG,-0.5037096072921678
23,1717965436415,ECG,0.7875299906323985
13,1717965436417,ECG,0.5363428978543505
37,1717965436420,ECG,0.5604869749514602
26,1717965436424,ECG,-0.5344601482222237
30,1717965436428,ECG,0.3457025372651782
35,1717965436434,ECG,0.3391738079627939
45,1717965436434,ECG,-0.6189830699683152
27,1717965436435,ECG,-0.09945287422973703
19,1717965436436,ECG,-0.5040232626672598
33,1717965436436,ECG,-0.3956070677025875
5,1717965436437,ECG,0.17549484635589305
1,1717965436438,ECG,0.3840012881559236
36,1717965436440,ECG,-0.4973740462541984
34,1717965436441,ECG,-0.2062175193664459
18,1717965437416,ECG,0.5632398823129898
17,1717965437416,ECG,0.29823471818518127
29,1717965437415,ECG,-0.38692175940259294
6,1717965437416,ECG,0.4219567183499997
48,1717965437417,ECG,0.752438900674312
23,1717965437417,ECG,0.24117785134953076
10,1717965437417,ECG,-0.03437672280659808
13,1717965437418,ECG,-0.24834893890563012
37,1717965437420,ECG,0.7117679484359841
26,1717965437424,ECG,0.5828905048420296
47,1717965437425,ECG,0.3041385162386586
32,1717965437428,ECG,0.40251219325274734
30,1717965437428,ECG,-0.055979107118310126
40,1717965437431,ECG,-0.4636876978439665
41,1717965437431,ECG,0.4518042304583234
28,1717965437433,ECG,-0.3084310811909576
35,1717965437434,ECG,-0.21350490782333229
27,1717965437435,ECG,-0.5662608631887256
45,1717965437435,ECG,0.03122236073248156
2,1717965437436,ECG,-0.5014000437893765
19,1717965437436,ECG,-0.27947636190879616
33,1717965437436,ECG,-0.14810770912946444
5,1717965437437,ECG,0.4270671805946902
1,1717965437438,ECG,-0.08956184762787181
36,1717965437440,ECG,-0.49094289524869605
7,1717965437440,ECG,0.6409996104751439
34,1717965437441,ECG,0.547152034178493
29,1717965438415,ECG,0.0495746909757619
18,1717965438415,ECG,0.23757906299046452
17,1717965438416,ECG,-0.3139227063613092
6,1717965438416,ECG,-0.10494783544335583
9,1717965438416,ECG,-0.2999259888039661
44,1717965438416,ECG,-0.5369371578451511
48,1717965438416,ECG,-0.5529219397235458
50,1717965438416,ECG,0.39893471900979355
23,1717965438416,ECG,-0.222643420277274
10,1717965438416,ECG,-0.13513295631313563
25,1717965438417,ECG,0.14222246090147453
42,1717965438417,ECG,-0.5802910260698058
14,1717965438416,ECG,0.7519328634484047
12,1717965438417,ECG,0.31533884480254515
13,1717965438417,ECG,0.47211735186702986
37,1717965438420,ECG,-0.4381614234707013
26,1717965438424,ECG,-0.3077758418805813
47,1717965438425,ECG,0.06548346998202954
22,1717965438427,ECG,0.07022026313213842
32,1717965438428,ECG,-0.3805446554071119
30,1717965438428,ECG,-0.14087259747826902
38,1717965438430,ECG,-0.5263222993873004
40,1717965438431,ECG,-0.2529413046684319
41,1717965438432,ECG,-0.4100006704132546
28,1717965438433,ECG,-0.5227551637073905
39,1717965438433,ECG,-0.49252201791400557
35,1717965438434,ECG,-0.6008443750697726
45,1717965438434,ECG,0.7676044461630958
27,1717965438435,ECG,-0.15212732636125786
2,1717965438435,ECG,0.20787228856149084
19,1717965438436,ECG,0.118480016557411
33,1717965438436,ECG,-0.5412617415440389
5,1717965438437,ECG,-0.01605719825124092
21,1717965438438,ECG,0.7690972219397488
1,1717965438438,ECG,-0.3414273360221447
46,1717965438439,ECG,0.4329777879186869
36,1717965438440,ECG,0.5349563601913783
24,1717965438440,ECG,-0.44972514624877863
7,1717965438440,ECG,0.36930634151494546
34,1717965438441,ECG,-0.5844150737911358
29,1717965439415,ECG,0.3119698773301701
18,1717965439415,ECG,0.5021683542600736
17,1717965439416,ECG,-0.1637631498231913
6,1717965439416,ECG,-0.42645290800693375
9,1717965439416,ECG,0.6358325648072428
44,1717965439416,ECG,0.17052086869383115
14,1717965439416,ECG,-0.31696592189137285
48,1717965439417,ECG,0.34676560523351513
50,1717965439417,ECG,0.10620616443062793
23,1717965439417,ECG,-0.16398112820990302
10,1717965439417,ECG,-0.34468077794004065
42,1717965439418,ECG,-0.5368637853176162
25,1717965439417,ECG,-0.015910497098849702
12,1717965439418,ECG,0.6477256056564482
15,1717965439418,ECG,0.19782278093924996
8,1717965439418,ECG,-0.5470501452636501
31,1717965439419,ECG,0.7426165822792259
43,1717965439419,ECG,0.5310013034242816
13,1717965439418,ECG,0.11173300309645061
16,1717965439420,ECG,-0.16343587793282716
37,1717965439420,ECG,0.3828651167088269
49,1717965439421,ECG,0.40922908235860594
26,1717965439423,ECG,0.1083517082485088
20,1717965439424,ECG,-0.37165495792895314
47,1717965439425,ECG,-0.3288018112606931
22,1717965439427,ECG,0.7018682563024272
32,1717965439428,ECG,-0.5328841024933259
30,1717965439428,ECG,-0.1437029930331458
11,1717965439429,ECG,-0.46491271388841743
3,1717965439430,ECG,0.008147220071601055
38,1717965439430,ECG,-0.4256367954171189
4,1717965439432,ECG,-0.3053779595019665
40,1717965439433,ECG,-0.5161014113401872
28,1717965439433,ECG,-0.15302058779254651
39,1717965439433,ECG,-0.4080669391382885
41,1717965439433,ECG,0.5246326913820256
35,1717965439434,ECG,-0.3319969533105954
45,1717965439434,ECG,-0.1151557001389241
27,1717965439435,ECG,0.24068023622341747
2,1717965439435,ECG,0.07467328047271415
19,1717965439435,ECG,-0.3238615324454923
33,1717965439436,ECG,-0.47783668126215983
5,1717965439437,ECG,0.31024922178462677
21,1717965439437,ECG,-0.31989185824888144
1,1717965439438,ECG,-0.011105075248073153
46,1717965439439,ECG,-0.19324818798940688
36,1717965439440,ECG,-0.159732620048525
24,1717965439440,ECG,0.2403518265685264
7,1717965439440,ECG,0.007339487747125464
34,1717965439441,ECG,0.029746121297030158
17,1717965440416,ECG,0.2727871880216776
18,1717965440416,ECG,0.6721138848224804
29,1717965440415,ECG,-0.48760827040651705
9,1717965440416,ECG,-0.13363372827703074
6,1717965440416,ECG,0.3581711436089187
44,1717965440416,ECG,-0.3033891588137858
14,1717965440416,ECG,-0.1396404172810871
48,1717965440416,ECG,-0.6135888344393153
23,1717965440417,ECG,-0.3093845675230358
10,1717965440417,ECG,0.21807868222473561
25,1717965440417,ECG,0.22558271380063455
42,1717965440417,ECG,-0.1003676199575267
12,1717965440417,ECG,-0.03653093807920834
13,1717965440418,ECG,-0.08510251353624537
8,1717965440418,ECG,-0.3177807307633409
50,1717965440417,ECG,-0.11898492621366924
31,1717965440418,ECG,0.41369759829232355
15,1717965440418,ECG,0.521075215917055
43,1717965440419,ECG,0.19801262416474238
16,1717965440420,ECG,-0.34226207265228964
37,1717965440420,ECG,0.637216993069736
49,1717965440421,ECG,-0.10388419472820783
26,1717965440423,ECG,0.46872352442531956
20,1717965440424,ECG,0.57929926803421
47,1717965440425,ECG,0.38298902412543634
22,1717965440427,ECG,0.11403097126458807
32,1717965440428,ECG,0.06258122966427618
30,1717965440428,ECG,-0.008576810809123408
11,1717965440429,ECG,0.7823541567380394
3,1717965440430,ECG,0.3104767492620765
4,1717965440430,ECG,0.6126768954568051
38,1717965440430,ECG,0.12251386152909044
40,1717965440431,ECG,0.32612963078644186
41,1717965440431,ECG,-0.34580544406668734
28,1717965440433,ECG,-0.3062435015193223
39,1717965440433,ECG,0.35215841348466526
35,1717965440434,ECG,-0.23758511012580996
45,1717965440434,ECG,-0.1295211027427952
27,1717965440435,ECG,-0.29538940792456597
2,1717965440435,ECG,-0.051873684971745396
19,1717965440436,ECG,-0.6098740449871912
33,1717965440436,ECG,0.2382668271299593
5,1717965440437,ECG,-0.5156491979831137
21,1717965440438,ECG,0.29054721962652397
1,1717965440438,ECG,0.6625193316498551
46,1717965440439,ECG,0.46456149460384183
36,1717965440440,ECG,-0.3651481507845298
24,1717965440440,ECG,-0.43988846839492124
7,1717965440440,ECG,-0.1257111618889949
34,1717965440441,ECG,0.5104383116058878
29,1717965441415,ECG,0.5023644329258254
18,1717965441415,ECG,-0.1601096100024184
17,1717965441416,ECG,0.5454764122676189
44,1717965441416,ECG,0.30006207122811457
14,1717965441417,ECG,0.13489703014873472
6,1717965441416,ECG,0.264862500015378
48,1717965441417,ECG,-0.24007466037336195
23,1717965441417,ECG,-0.06633836542782645
9,1717965441416,ECG,0.08990944744063192
25,1717965441417,ECG,0.656425806056749
42,1717965441417,ECG,-0.11558910308804099
12,1717965441418,ECG,-0.12081233620132936
15,1717965441418,ECG,-0.3209927731646996
50,1717965441417,ECG,0.26495552022783886
13,1717965441418,ECG,0.6881081555450282
8,1717965441418,ECG,-0.3284386281718097
31,1717965441418,ECG,0.5102448529054611
10,1717965441417,ECG,-0.016286959649633767
43,1717965441419,ECG,-0.4938251960300051
16,1717965441420,ECG,0.01394019008733077
37,1717965441420,ECG,0.7032631488381239
49,1717965441421,ECG,0.26621997681186116
26,1717965441423,ECG,-0.2832515207767407
20,1717965441424,ECG,-0.6214794328374658
47,1717965441425,ECG,0.19009244831387706
22,1717965441427,ECG,0.2922616439113858
32,1717965441428,ECG,-0.5787524251603942
30,1717965441428,ECG,-0.553498082745018
11,1717965441429,ECG,0.7892698829644909
3,1717965441430,ECG,0.7843651388908829
38,1717965441430,ECG,0.666506649245982
4,1717965441430,ECG,0.34637246776946146
40,1717965441431,ECG,0.16339199552330522
41,1717965441431,ECG,0.4266825947895977
28,1717965441432,ECG,0.5498037723329104
39,1717965441433,ECG,0.19931103756759455
35,1717965441434,ECG,0.06527432742777203
45,1717965441434,ECG,0.7369012083955173
27,1717965441435,ECG,-0.22268043345150149
2,1717965441435,ECG,-0.5523363149618438
19,1717965441435,ECG,-0.4905365487778712
33,1717965441436,ECG,0.6807793451387818
5,1717965441437,ECG,0.26175780997063125
21,1717965441437,ECG,-0.6038104427249573
1,1717965441438,ECG,-0.3268401224904143
46,1717965441439,ECG,-0.290036527624367
36,1717965441440,ECG,-0.34257775190734374
24,1717965441440,ECG,-0.11941757139704451
7,1717965441440,ECG,-0.0686843364028377
34,1717965441441,ECG,0.09991399181150995
29,1717965442415,ECG,-0.1024666718340781
18,1717965442415,ECG,0.6085078425565574
17,1717965442416,ECG,-0.254147326813838
6,1717965442416,ECG,0.29343959349049487
9,1717965442416,ECG,-0.2400128050164234
48,1717965442416,ECG,0.09600671583732741
23,1717965442416,ECG,-0.5414824959278107
10,1717965442416,ECG,-0.27527572369130515
25,1717965442417,ECG,-0.48216322709056997
42,1717965442417,ECG,-0.02039028407136883
12,1717965442417,ECG,-0.4813046873967624
15,1717965442417,ECG,-0.3877075890799573
50,1717965442416,ECG,0.18608149350324132
13,1717965442417,ECG,0.5027974879857143
14,1717965442416,ECG,0.10480100763071773
44,1717965442416,ECG,-0.09944910003746962
8,1717965442418,ECG,-0.5303512298327976
31,1717965442418,ECG,0.27995214319905504
43,1717965442419,ECG,-0.5726731136066735
16,1717965442420,ECG,0.5030711829967045
37,1717965442420,ECG,-0.4353390650891784
49,1717965442421,ECG,-0.3594438546976444
26,1717965442423,ECG,0.26410943061547537
20,1717965442424,ECG,-0.17907943013308825
47,1717965442425,ECG,-0.04874824377278067
22,1717965442427,ECG,-0.24224256204348546
32,1717965442428,ECG,0.28916863698768114
30,1717965442428,ECG,-0.02374319018868807
11,1717965442429,ECG,0.4766157204991112
3,1717965442430,ECG,0.09888456865294636
38,1717965442430,ECG,0.3223672677663545
4,1717965442430,ECG,0.2624356722132394
40,1717965442431,ECG,0.5283949535455005
41,1717965442431,ECG,-0.5180407925612884
28,1717965442433,ECG,-0.4673418295214703
39,1717965442433,ECG,-0.5155489458800039
35,1717965442434,ECG,-0.4873862506731907
45,1717965442434,ECG,-0.36394939838956614
27,1717965442435,ECG,0.28838000125438285
2,1717965442435,ECG,-0.473895424523476
19,1717965442435,ECG,0.2724069859402318
33,1717965442436,ECG,-0.5940762304781085
5,1717965442437,ECG,0.5417855727193107
21,1717965442437,ECG,0.13691808768306865
1,1717965442438,ECG,-0.5774769329463795
46,1717965442439,ECG,-0.0892226498154825
36,1717965442440,ECG,0.24689132883684053
24,1717965442440,ECG,-0.3666213833527701
7,1717965442440,ECG,0.408910801523245
34,1717965442441,ECG,0.5029516130363144
29,1717965443411,ECG,0.2305857065259715
18,1717965443412,ECG,-0.47965683334303155
17,1717965443413,ECG,-0.3305181204759916
6,1717965443413,ECG,0.712561229614386
9,1717965443413,ECG,-0.31530831048448466
44,1717965443414,ECG,0.27583471305842683
14,1717965443414,ECG,-0.0275332691003617
48,1717965443415,ECG,0.5231507729017039
50,1717965443415,ECG,0.5776438703911473
23,1717965443415,ECG,-0.45414707474690025
10,1717965443416,ECG,-0.18130771742059623
25,1717965443416,ECG,0.037323456619426834
42,1717965443416,ECG,-0.09938508479218182
12,1717965443416,ECG,-0.330507287690544
15,1717965443417,ECG,-0.3593284161532478
13,1717965443417,ECG,0.7690222363415967
8,1717965443418,ECG,-0.5829135670149924
31,1717965443418,ECG,-0.4798947302806831
43,1717965443419,ECG,-0.5080771915097043
16,1717965443420,ECG,0.5694331916707001
37,1717965443420,ECG,0.016107822740199278
49,1717965443421,ECG,0.008977599097064276
26,1717965443423,ECG,-0.3223941142061777
20,1717965443424,ECG,0.2636145017568055
47,1717965443425,ECG,-0.26847386875692686
22,1717965443427,ECG,0.2519718096227856
32,1717965443428,ECG,0.20396881986374177
30,1717965443428,ECG,0.7600551126092512
11,1717965443429,ECG,0.3230506084035566
3,1717965443430,ECG,0.6516265721717981
38,1717965443430,ECG,0.24565994896831683
4,1717965443430,ECG,0.10682684730449288
40,1717965443431,ECG,-0.5746899558109647
41,1717965443431,ECG,0.2574211369354608
28,1717965443433,ECG,0.5061885586965054
39,1717965443433,ECG,-0.2236809854191707
35,1717965443434,ECG,-0.1041492711838519
45,1717965443434,ECG,0.666093737084684
27,1717965443435,ECG,-0.23704494346288799
2,1717965443435,ECG,-0.1469400408047385
19,1717965443436,ECG,-0.41077465869529145
33,1717965443436,ECG,0.37202600994078183
5,1717965443437,ECG,-0.3407668530154311
21,1717965443437,ECG,-0.18318515780950936
1,1717965443438,ECG,-0.5835431745310492
46,1717965443439,ECG,-0.4144999529493274
36,1717965443440,ECG,-0.0565493639632708
24,1717965443440,ECG,0.3380196052575065
7,1717965443440,ECG,0.22576769306624372
34,1717965443441,ECG,0.28271802962342946
18,1717965444415,ECG,0.24326702395707933
29,1717965444415,ECG,0.2669454920967881
17,1717965444416,ECG,0.07275053037794292
9,1717965444416,ECG,0.532639008617658
6,1717965444416,ECG,-0.238986274817337
44,1717965444416,ECG,0.2746609440224566
14,1717965444416,ECG,0.4781361311574498
48,1717965444416,ECG,-0.0066273746300149206
50,1717965444416,ECG,-0.5156503051569816
23,1717965444416,ECG,-0.3500616925937787
25,1717965444416,ECG,0.1371652996597328
10,1717965444416,ECG,0.4931766344093205
42,1717965444417,ECG,-0.5295290856341768
12,1717965444417,ECG,0.4756032588648511
15,1717965444417,ECG,-0.5211504076388231
13,1717965444417,ECG,0.37464028861345144
8,1717965444418,ECG,0.27015465564232655
31,1717965444418,ECG,-0.3313738949338804
43,1717965444419,ECG,-0.18497966483010578
16,1717965444420,ECG,0.6713632354647896
37,1717965444420,ECG,0.26686248335874396
49,1717965444421,ECG,-0.29534523595898127
26,1717965444423,ECG,0.7883387271374811
20,1717965444424,ECG,0.2040462747155608
47,1717965444425,ECG,-0.5053523054107363
22,1717965444427,ECG,-0.206268138465927
32,1717965444428,ECG,-0.42762584128240577
30,1717965444428,ECG,-0.010754237524280556
11,1717965444429,ECG,-0.43624775919213266
3,1717965444430,ECG,-0.3040086162061404
38,1717965444430,ECG,0.22678219446134032
4,1717965444430,ECG,0.1555709664093166
40,1717965444431,ECG,0.6508623891591514
41,1717965444432,ECG,-0.3893617920505801
28,1717965444433,ECG,0.15987186398011632
39,1717965444433,ECG,0.303409642688548
35,1717965444434,ECG,-0.10901197340152247
45,1717965444434,ECG,0.6319192184095282
27,1717965444435,ECG,0.30761557504417425
2,1717965444435,ECG,0.6211881106398236
19,1717965444435,ECG,0.22110753062770344
33,1717965444436,ECG,-0.1262670901799443
5,1717965444437,ECG,-0.05794389938863953
21,1717965444437,ECG,-0.48490645287406986
1,1717965444438,ECG,0.46386969193767724
46,1717965444439,ECG,-0.34280440799084405
36,1717965444440,ECG,0.160681248574812
24,1717965444440,ECG,0.2518769613792791
7,1717965444440,ECG,0.7376520198723945
34,1717965444441,ECG,0.4482403433759935
29,1717965445412,ECG,-0.3136805301315103
18,1717965445412,ECG,-0.4481466654664106
17,1717965445413,ECG,-0.09651330180660692
6,1717965445413,ECG,0.34640365386707633
9,1717965445413,ECG,-0.26456132484138484
44,1717965445414,ECG,0.35333701673134393
14,1717965445414,ECG,-0.3067255362840355
48,1717965445415,ECG,0.18322387455343309
50,1717965445415,ECG,-0.20827637322713424
23,1717965445415,ECG,-0.5309687302871624
10,1717965445416,ECG,-0.1942664714462411
25,1717965445416,ECG,0.10059841321905788
42,1717965445416,ECG,0.029744071859733826
12,1717965445416,ECG,0.41195304623335705
15,1717965445417,ECG,0.3730342257213088
13,1717965445417,ECG,-0.300269697759932
8,1717965445418,ECG,-0.1947814001412372
31,1717965445418,ECG,-0.04039521940855345
43,1717965445419,ECG,0.23248746746148596
16,1717965445420,ECG,0.7288064185865142
37,1717965445420,ECG,-0.20515829884227452
49,1717965445421,ECG,-0.23933538538281054
26,1717965445423,ECG,0.12796771766490458
20,1717965445424,ECG,0.356328615353062
47,1717965445425,ECG,0.30947053268953345
22,1717965445427,ECG,-0.47121526587724355
32,1717965445428,ECG,-0.1653768289051519
30,1717965445428,ECG,0.49429911542560967
11,1717965445429,ECG,-0.1562269661657812
3,1717965445430,ECG,0.12024712156209039
38,1717965445430,ECG,0.7274267614357933
4,1717965445430,ECG,-0.22302420155045516
40,1717965445431,ECG,0.5133308135954892
41,1717965445431,ECG,-0.19203368074728094
28,1717965445433,ECG,0.0665028240450021
39,1717965445433,ECG,0.7076835022995807
35,1717965445434,ECG,0.47148854122515
45,1717965445434,ECG,-0.1920016900165173
27,1717965445435,ECG,0.32941922881215585
2,1717965445435,ECG,0.7652500338714145
19,1717965445435,ECG,-0.2903447460335681
33,1717965445436,ECG,0.2646749783164193
5,1717965445437,ECG,-0.5873679845692149
21,1717965445437,ECG,0.4369897427634578
1,1717965445438,ECG,0.46142515530684275
46,1717965445439,ECG,0.040332253702025506
36,1717965445440,ECG,0.49472779485116153
24,1717965445440,ECG,0.5275847676496143
7,1717965445440,ECG,0.263851305905121
34,1717965445441,ECG,-0.13683240137670263
29,1717965446414,ECG,-0.019322189537111265
18,1717965446414,ECG,-0.11151807135387447
17,1717965446415,ECG,-0.5242858697861311
44,1717965446415,ECG,-0.21189116915148942
6,1717965446415,ECG,0.6622025337273305
48,1717965446415,ECG,-0.3283632438059088
14,1717965446415,ECG,-0.13733836845412767
50,1717965446416,ECG,0.4902569466465355
23,1717965446416,ECG,-0.4974433023034842
10,1717965446416,ECG,0.479732196126664
25,1717965446416,ECG,0.27071109593038417
42,1717965446416,ECG,0.2397069755048821
9,1717965446415,ECG,0.7363435787153958
12,1717965446416,ECG,-0.2442214818347637
15,1717965446417,ECG,0.6112838068147297
13,1717965446417,ECG,0.02394993061108206
8,1717965446418,ECG,0.6423152577925821
31,1717965446418,ECG,0.30601955416745136
43,1717965446419,ECG,-0.5256425856730464
16,1717965446420,ECG,0.1501941957109171
37,1717965446420,ECG,0.3331095436065066
49,1717965446421,ECG,-0.31422071070055413
26,1717965446423,ECG,-0.5742949366004362
20,1717965446424,ECG,-0.31439289608839055
47,1717965446425,ECG,0.16309770033167664
22,1717965446427,ECG,0.24168117674690875
32,1717965446428,ECG,0.18601096761397098
30,1717965446428,ECG,-0.3382492193486739
11,1717965446429,ECG,-0.1627184911534198
3,1717965446430,ECG,-0.013395037021122456
38,1717965446430,ECG,0.08750025131174025
4,1717965446430,ECG,0.4713192468850282
40,1717965446431,ECG,-0.24768868490820856
41,1717965446431,ECG,0.09451406537565439
28,1717965446433,ECG,0.2791629738254385
39,1717965446433,ECG,-0.3118081636022398
35,1717965446434,ECG,0.3356804303038641
45,1717965446434,ECG,0.5084059420118389
27,1717965446435,ECG,-0.27971875287124437
2,1717965446435,ECG,0.022032358812196565
19,1717965446436,ECG,-0.2553735797543016
33,1717965446436,ECG,-0.07069548032773137
5,1717965446437,ECG,-0.5745951609110458
21,1717965446437,ECG,0.4907584700651732
1,1717965446438,ECG,-0.014618430047067615
46,1717965446439,ECG,0.3172861777294755
36,1717965446440,ECG,-0.5554206140755853
24,1717965446440,ECG,-0.24639591328342345
7,1717965446440,ECG,0.3097217244725523
34,1717965446441,ECG,0.4499584777300573
18,1717965447416,ECG,0.40911578551922523
17,1717965447416,ECG,-0.16025385885571936
6,1717965447416,ECG,-0.5984391331985262
9,1717965447416,ECG,0.0035980099117616307
29,1717965447415,ECG,-0.15883066349481179
14,1717965447417,ECG,-0.15563526156070032
48,1717965447417,ECG,0.15722223796059903
23,1717965447417,ECG,-0.1392759681865936
10,1717965447417,ECG,0.7428238256246297
25,1717965447417,ECG,0.7009976956946834
42,1717965447417,ECG,0.7471821806702879
44,1717965447416,ECG,-0.23340758422203242
50,1717965447417,ECG,0.7436412463603504
12,1717965447418,ECG,0.22080993784885636
15,1717965447418,ECG,0.40762560935738484
8,1717965447418,ECG,-0.5003020804845715
31,1717965447418,ECG,-0.4390545539213236
13,1717965447418,ECG,-0.5107861649549944
43,1717965447419,ECG,-0.1847183833805067
16,1717965447420,ECG,-0.2829987353516052
37,1717965447420,ECG,-0.30427931431419386
49,1717965447421,ECG,0.26724187822791967
26,1717965447423,ECG,0.27349471753686916
20,1717965447424,ECG,0.05786385514805416
47,1717965447425,ECG,0.14770833528923116
22,1717965447427,ECG,-0.45182986359068494
32,1717965447428,ECG,-0.5318724871371898
30,1717965447428,ECG,0.46911317287355664
11,1717965447429,ECG,-0.2956826116526658
3,1717965447430,ECG,0.711870689406074
38,1717965447430,ECG,-0.5237963576585198
4,1717965447430,ECG,0.482479238352129
40,1717965447431,ECG,-0.009463509585182626
41,1717965447431,ECG,-0.09809484512543301
28,1717965447433,ECG,0.759914854071696
39,1717965447433,ECG,-0.256076931525239
35,1717965447434,ECG,-0.3288339018936184
45,1717965447434,ECG,0.07534170545397212
27,1717965447435,ECG,0.657110990182271
2,1717965447435,ECG,-0.2186664476542242
19,1717965447436,ECG,-0.31955443873756756
33,1717965447436,ECG,-0.4557714754685373
5,1717965447437,ECG,0.1273962692760003
21,1717965447437,ECG,0.048308920578883655
1,1717965447438,ECG,0.3052543045123406
46,1717965447439,ECG,-0.11137384106183293
36,1717965447440,ECG,-0.1019282592310551
24,1717965447440,ECG,-0.5075864061012625
7,1717965447440,ECG,-0.5189587234617853
34,1717965447441,ECG,0.19828522387597788
29,1717965448415,ECG,-0.12303973293567116
17,1717965448416,ECG,0.30466903717916405
18,1717965448415,ECG,-0.5732207335447624
6,1717965448416,ECG,-0.32604256303384743
44,1717965448416,ECG,-0.36848579545526433
9,1717965448416,ECG,-0.2921192363174496
48,1717965448416,ECG,0.126915441145464
50,1717965448416,ECG,-0.6002452796669712
23,1717965448416,ECG,-0.36458154604285775
10,1717965448416,ECG,-0.19666593150143621
25,1717965448416,ECG,-9.74561751785813E-4
42,1717965448416,ECG,0.2461909684122638
12,1717965448417,ECG,-0.45196479258606237
14,1717965448416,ECG,-0.28744421823916405
15,1717965448417,ECG,0.47145770200664106
13,1717965448417,ECG,-0.4336457975793686
8,1717965448418,ECG,-0.06690230374247189
31,1717965448418,ECG,-0.3159179278690221
43,1717965448419,ECG,0.18415544730608563
16,1717965448420,ECG,-0.026382379369069845
37,1717965448420,ECG,-0.4560429930127659
49,1717965448421,ECG,-0.22757044684561256
26,1717965448423,ECG,-0.4978783501368751
20,1717965448424,ECG,-0.5890971361693437
47,1717965448425,ECG,0.16887274201956473
22,1717965448427,ECG,-0.22068626655721504
32,1717965448428,ECG,0.06692014959464182
30,1717965448428,ECG,-0.29880616365192614
11,1717965448429,ECG,-0.240229252015419
3,1717965448430,ECG,-0.22848877951378688
38,1717965448430,ECG,0.02893913942531927
4,1717965448430,ECG,-0.016772072046995976
40,1717965448431,ECG,0.5024599763684812
41,1717965448432,ECG,0.4171053830623551
28,1717965448433,ECG,-0.21282791940895773
39,1717965448433,ECG,-0.2446017299449813
35,1717965448434,ECG,0.5090729088086794
45,1717965448434,ECG,-0.0023183527362646283
27,1717965448435,ECG,0.278049422837535
2,1717965448435,ECG,-0.27498844997561966
19,1717965448435,ECG,-0.15565198858372054
33,1717965448436,ECG,0.2990803826800825
5,1717965448437,ECG,0.4913255532661034
21,1717965448438,ECG,0.7321039161465525
1,1717965448438,ECG,0.5919729724694986
46,1717965448439,ECG,-0.48598197034581037
36,1717965448440,ECG,0.5498983367398877
24,1717965448440,ECG,-0.30255364193991313
7,1717965448440,ECG,0.3569745414581791
34,1717965448441,ECG,0.535699235948826
18,1717965449413,ECG,-0.10972746059905439
29,1717965449412,ECG,-0.34615609554715576
17,1717965449413,ECG,0.057224491633956834
6,1717965449413,ECG,-0.5181412552913246
9,1717965449413,ECG,-0.5408158204897263
44,1717965449414,ECG,0.3127366080040355
14,1717965449414,ECG,0.1115878434913741
48,1717965449415,ECG,0.38075175028167807
50,1717965449415,ECG,0.5489386731424043
23,1717965449415,ECG,-0.49009051676701076
10,1717965449416,ECG,-0.2165972923153281
25,1717965449416,ECG,0.13587592458590314
42,1717965449416,ECG,-0.51651796531351
12,1717965449416,ECG,-0.10676243220985596
15,1717965449417,ECG,0.18309810877004687
13,1717965449417,ECG,-0.30584221320500593
8,1717965449418,ECG,0.2326743849981041
31,1717965449418,ECG,-0.08009014601138492
43,1717965449419,ECG,0.7279569475112273
16,1717965449420,ECG,0.2895498705969023
37,1717965449420,ECG,-0.523748065454562
49,1717965449421,ECG,-0.11490157620309821
26,1717965449423,ECG,-0.2444743410467628
20,1717965449424,ECG,-0.42150219372358083
47,1717965449425,ECG,0.25422462369356075
22,1717965449427,ECG,0.054739871241366894
32,1717965449428,ECG,0.4076786706212947
30,1717965449428,ECG,-0.10329786253861228
11,1717965449429,ECG,0.6545720673282133
3,1717965449430,ECG,-0.1470427052970857
38,1717965449430,ECG,0.32012214596342853
4,1717965449430,ECG,0.2074806303800534
40,1717965449431,ECG,0.3426906141396826
41,1717965449431,ECG,0.164980858916776
28,1717965449433,ECG,0.4236144830874382
39,1717965449433,ECG,0.1606272354478438
35,1717965449434,ECG,-0.004146408298957477
45,1717965449434,ECG,0.23826313454402395
27,1717965449435,ECG,-0.260269851613889
2,1717965449435,ECG,-0.4129796099029554
19,1717965449435,ECG,0.10456998221273399
33,1717965449436,ECG,-0.2637357175329196
5,1717965449437,ECG,-0.07100438610776755
21,1717965449437,ECG,0.00186403379702995
1,1717965449438,ECG,-0.40846532614134856
46,1717965449439,ECG,-0.10364562344975388
36,1717965449440,ECG,-0.011401298654663456
24,1717965449440,ECG,0.7628714767744114
7,1717965449440,ECG,-0.5015134562771644
34,1717965449441,ECG,0.16758080127833433
29,1717965450415,ECG,-0.014292044928531866
18,1717965450415,ECG,0.5162638783660904
17,1717965450415,ECG,0.21141125812142345
6,1717965450416,ECG,0.42936855457869616
9,1717965450416,ECG,-0.42503703501092394
44,1717965450416,ECG,0.27920618381078277
48,1717965450416,ECG,0.012001651699495353
50,1717965450416,ECG,-0.11957962143625708
23,1717965450416,ECG,-0.5086975106851612
10,1717965450416,ECG,0.39855669143392786
42,1717965450416,ECG,-0.1277864931082452
14,1717965450416,ECG,-0.3082738746722734
12,1717965450416,ECG,-0.026513892954439858
25,1717965450416,ECG,0.4818161576563065
15,1717965450417,ECG,-0.21582183042760325
13,1717965450417,ECG,-0.4818797503039872
8,1717965450418,ECG,-0.057082725411129756
31,1717965450418,ECG,0.27212539813748904
43,1717965450419,ECG,0.3775591350151808
16,1717965450420,ECG,-0.33855460054616854
37,1717965450420,ECG,0.7457838531976668
49,1717965450421,ECG,-0.22474735084388045
26,1717965450423,ECG,0.051120804019405594
20,1717965450424,ECG,0.5229217575627266
47,1717965450425,ECG,-0.5993563481241726
22,1717965450427,ECG,-0.324996504892832
32,1717965450428,ECG,-0.29955770718133967
30,1717965450428,ECG,0.07625004373858256
11,1717965450429,ECG,-0.5935514670219909
3,1717965450430,ECG,-0.2355289274212153
38,1717965450430,ECG,0.1322522983670757
4,1717965450430,ECG,-0.22733082010727848
40,1717965450431,ECG,0.2992255440689216
41,1717965450432,ECG,0.7408893015527561
28,1717965450433,ECG,-0.47497919826213475
39,1717965450433,ECG,-0.5311127448319213
35,1717965450434,ECG,-0.32328264328151934
45,1717965450434,ECG,0.7596836480146834
27,1717965450435,ECG,-0.43148027635724795
2,1717965450435,ECG,-0.3087629047984272
19,1717965450435,ECG,-0.17756550069966753
33,1717965450436,ECG,0.4273214353385918
5,1717965450437,ECG,-0.29244352475570135
21,1717965450437,ECG,0.10613206297586024
1,1717965450438,ECG,0.31582622296159285
46,1717965450439,ECG,-0.3706652092831349
36,1717965450440,ECG,-0.5117922289016051
24,1717965450440,ECG,0.12805643554129734
7,1717965450440,ECG,0.5688825348662914
34,1717965450441,ECG,0.7579508489858242
23,1717965541999,ECG,0.7585895817422593
34,1717965542020,ECG,-0.5187081373107908
36,1717965542003,ECG,-0.31001842207101615
40,1717965542011,ECG,-0.021526350527800126
8,1717965542016,ECG,0.2897584792756238
25,1717965542021,ECG,-0.23396687634065472
17,1717965542016,ECG,-0.5972349816433086
20,1717965542001,ECG,0.6821619720139055
23,1717965543000,ECG,0.24505732252422882
27,1717965543000,ECG,-0.10606045841175965
36,1717965543003,ECG,0.06549020224638186
20,1717965543003,ECG,0.48885139737893984
18,1717965543004,ECG,0.7194988003330866
31,1717965543008,ECG,-0.35912111738008345
33,1717965543009,ECG,-0.4159450178630092
40,1717965543011,ECG,0.4772586484413405
35,1717965543015,ECG,0.7207344347434266
17,1717965543016,ECG,-0.33386035406863507
8,1717965543016,ECG,-0.6005977430363503
14,1717965543018,ECG,0.2500181178455015
9,1717965543020,ECG,-0.448334664317358
34,1717965543020,ECG,0.5294586422217308
50,1717965543020,ECG,-0.40227573660022214
25,1717965543021,ECG,-0.3289451264303196
23,1717965544004,ECG,0.593360333426104
32,1717965544004,ECG,-0.3858585659527693
27,1717965544004,ECG,0.41629984956175403
46,1717965544005,ECG,0.2964889495837719
20,1717965544005,ECG,0.05449715500711389
3,1717965544005,ECG,0.3465668801334571
15,1717965544006,ECG,0.19328869581043714
28,1717965544006,ECG,-0.5178567896430857
42,1717965544006,ECG,-0.12428551618560035
36,1717965544006,ECG,0.1937330104369586
11,1717965544006,ECG,-0.39916793983080767
18,1717965544006,ECG,0.7778980780240783
22,1717965544006,ECG,-0.16521677847855049
30,1717965544007,ECG,0.3845038345572489
31,1717965544008,ECG,-0.49075048513377467
16,1717965544008,ECG,-0.14198786385102807
1,1717965544008,ECG,-0.10354945076765217
48,1717965544009,ECG,0.31150078803462916
33,1717965544009,ECG,0.11236612705025863
40,1717965544010,ECG,0.0361541604182409
35,1717965544015,ECG,-0.22139244491509785
29,1717965544015,ECG,0.2192480336093975
38,1717965544015,ECG,-0.3767987531352678
17,1717965544016,ECG,-0.16179006890758413
8,1717965544016,ECG,-0.18843524577055545
14,1717965544018,ECG,-0.23241388984948458
47,1717965544018,ECG,0.48050818104825466
9,1717965544019,ECG,-0.25477363717816953
50,1717965544019,ECG,0.21266152455045306
34,1717965544020,ECG,0.23631636534678102
25,1717965544021,ECG,0.1765769384874334
7,1717965545004,ECG,-0.3679148290609318
23,1717965545004,ECG,0.5170754963918357
27,1717965545005,ECG,0.053080841063921504
32,1717965545005,ECG,-0.19348747510507874
45,1717965545005,ECG,0.17962258100777642
46,1717965545006,ECG,-0.39745489813171586
4,1717965545007,ECG,0.30744755808739715
20,1717965545007,ECG,0.16247359097245767
3,1717965545007,ECG,-0.1801877870204337
15,1717965545007,ECG,0.12433057337814908
28,1717965545007,ECG,0.23705695250954567
36,1717965545008,ECG,0.7829596545842346
11,1717965545008,ECG,0.1170158404553305
42,1717965545008,ECG,-0.2903708781913153
22,1717965545009,ECG,0.147257316583443
18,1717965545009,ECG,-0.2512979938897156
44,1717965545009,ECG,-0.3206050558099668
30,1717965545009,ECG,-0.2734561743860354
31,1717965545010,ECG,0.04289597985301287
1,1717965545010,ECG,-0.5332406241879152
16,1717965545010,ECG,-0.5171050963288969
24,1717965545010,ECG,-0.43444939800105203
48,1717965545010,ECG,-0.33278065440748544
33,1717965545010,ECG,-0.25582885638228986
40,1717965545011,ECG,0.16517215777630834
12,1717965545014,ECG,-0.48658589072983555
35,1717965545014,ECG,0.6258502455319249
29,1717965545015,ECG,-0.23038002345089909
38,1717965545015,ECG,0.28623464201667176
17,1717965545016,ECG,-0.35764033283954016
8,1717965545016,ECG,0.2805202050086715
14,1717965545018,ECG,-0.17675903997949877
47,1717965545018,ECG,-0.21559054702311836
5,1717965545019,ECG,0.2814481936272998
9,1717965545019,ECG,-0.3348711364670177
50,1717965545019,ECG,0.285822452651121
34,1717965545020,ECG,0.2710284639683716
25,1717965545021,ECG,0.25045086612120004
49,1717965546001,ECG,0.06648110839559399
7,1717965546001,ECG,0.3004002637262014
23,1717965546002,ECG,0.7409183572185526
32,1717965546002,ECG,0.5079801065199733
45,1717965546004,ECG,0.4858146483617196
27,1717965546002,ECG,0.44440101354002187
26,1717965546005,ECG,0.5364479057528373
19,1717965546005,ECG,-0.13392988994670593
10,1717965546005,ECG,0.725917999530529
4,1717965546005,ECG,0.29412592186642084
3,1717965546005,ECG,0.20079546514648278
20,1717965546005,ECG,-0.012759700479288844
46,1717965546005,ECG,0.028021229837078186
15,1717965546006,ECG,-0.16550899777570735
28,1717965546006,ECG,-0.4834327704594752
42,1717965546006,ECG,-0.11987802566306784
37,1717965546006,ECG,-0.2551654383924045
6,1717965546007,ECG,-0.5257650451145073
36,1717965546007,ECG,0.2774950633402639
11,1717965546007,ECG,0.5078288528572477
22,1717965546007,ECG,-0.03175368203333585
18,1717965546007,ECG,-0.2467850702357776
44,1717965546008,ECG,0.07467702542903569
30,1717965546008,ECG,0.027827529523551574
41,1717965546008,ECG,-0.583433118546436
31,1717965546008,ECG,0.2603888336641096
16,1717965546009,ECG,0.4741841699861102
1,1717965546009,ECG,-0.33456659716125325
24,1717965546009,ECG,0.023644754998512582
48,1717965546009,ECG,-0.27913600185963916
33,1717965546010,ECG,0.4280301350152633
2,1717965546010,ECG,-0.5356569840220351
40,1717965546010,ECG,-0.24551229012053497
12,1717965546014,ECG,-0.5308048627817066
35,1717965546014,ECG,0.3259914009658416
29,1717965546015,ECG,-0.6076828714854048
38,1717965546015,ECG,0.10974704029034237
17,1717965546016,ECG,0.27442802559065615
8,1717965546016,ECG,0.08412281133556644
21,1717965546017,ECG,-0.582802705013838
14,1717965546018,ECG,-0.27591945345393104
47,1717965546018,ECG,-0.19668438711550537
5,1717965546019,ECG,0.3915441575469565
9,1717965546019,ECG,0.3787593438658861
50,1717965546019,ECG,-0.38167493611907594
34,1717965546020,ECG,-0.3542460636574217
43,1717965546020,ECG,0.07996648537865256
25,1717965546021,ECG,-0.24555572552573965
13,1717965546021,ECG,0.09663743632534197
39,1717965546022,ECG,-0.050285794898449476
49,1717965547002,ECG,-0.5950241131175825
7,1717965547002,ECG,0.1848227387104957
23,1717965547003,ECG,0.44277123931773804
27,1717965547003,ECG,-0.33981406963478383
32,1717965547003,ECG,-0.12704795887854345
45,1717965547003,ECG,-0.47464278563179635
26,1717965547004,ECG,-0.003170890113522243
10,1717965547004,ECG,0.690705431919389
19,1717965547004,ECG,0.2519095496873502
46,1717965547004,ECG,-0.6089716097025534
4,1717965547004,ECG,0.037640096920387535
20,1717965547004,ECG,-0.5248597961479567
3,1717965547005,ECG,-0.576906361020529
15,1717965547005,ECG,0.5054915766296383
28,1717965547005,ECG,-0.14442872341643298
42,1717965547005,ECG,0.1757837091766439
37,1717965547005,ECG,-0.23577731965456147
6,1717965547006,ECG,-0.11857374794404232
11,1717965547006,ECG,0.363005711507012
22,1717965547007,ECG,0.5253389523333534
36,1717965547006,ECG,-0.2871551681624719
18,1717965547007,ECG,-0.09371763348273286
44,1717965547007,ECG,-0.5453590122204282
30,1717965547007,ECG,0.45003898774065176
31,1717965547008,ECG,-0.44912067834657593
41,1717965547008,ECG,0.26308279651852773
16,1717965547008,ECG,0.6228213728530725
1,1717965547008,ECG,-0.33574146379880976
24,1717965547009,ECG,-0.3412316830617183
48,1717965547009,ECG,-0.3464686525499524
33,1717965547009,ECG,-0.1941375534391099
2,1717965547010,ECG,0.028692917443309048
40,1717965547010,ECG,-0.03279029850522981
12,1717965547014,ECG,0.37628465280491163
35,1717965547014,ECG,-0.5884597133067299
29,1717965547015,ECG,0.43893334755507474
38,1717965547015,ECG,0.31017989310262123
17,1717965547016,ECG,-0.4740892878476093
8,1717965547016,ECG,-0.33107799242624675
21,1717965547017,ECG,-0.5302750389370011
14,1717965547018,ECG,0.2891044783007395
47,1717965547018,ECG,0.726529083802211
5,1717965547019,ECG,-0.5100360834057985
9,1717965547019,ECG,0.14441185628140787
50,1717965547019,ECG,-0.48966419638917474
34,1717965547020,ECG,-0.29991110269823235
43,1717965547020,ECG,0.46825347949896984
25,1717965547021,ECG,0.13612160389023026
13,1717965547021,ECG,0.580111948525614
39,1717965547022,ECG,-0.615104004987468
49,1717965547998,ECG,0.7460551291267945
7,1717965547999,ECG,-0.3624904668661735
23,1717965547999,ECG,0.07533965354403237
32,1717965547999,ECG,0.2542309874248044
27,1717965547999,ECG,0.14014035120975096
45,1717965548000,ECG,-0.6103972888896264
26,1717965548000,ECG,0.017968235923700747
10,1717965548000,ECG,-0.5154447653154376
19,1717965548000,ECG,-0.3914178011573634
46,1717965548000,ECG,-0.08302031567864346
4,1717965548001,ECG,0.5355054496955343
20,1717965548001,ECG,-0.38969222998019803
3,1717965548001,ECG,-0.6084790806352122
15,1717965548001,ECG,-0.2045595080081755
28,1717965548002,ECG,0.17646640859244028
42,1717965548002,ECG,0.029853136757523525
37,1717965548002,ECG,-0.6098096737410279
6,1717965548002,ECG,0.14018041947029397
36,1717965548003,ECG,0.7669760553548141
11,1717965548003,ECG,0.16178181215085916
22,1717965548003,ECG,-0.4831178081305701
18,1717965548003,ECG,0.6255422498134906
44,1717965548008,ECG,-0.16935232471529785
30,1717965548008,ECG,-0.2864239545238322
41,1717965548008,ECG,0.4795318178224046
1,1717965548008,ECG,0.2753997436985273
24,1717965548009,ECG,-0.5387031282780529
31,1717965548008,ECG,0.39780968954938856
16,1717965548008,ECG,-0.3364001760255967
48,1717965548009,ECG,0.2894162349278735
33,1717965548009,ECG,-0.5527211915609671
2,1717965548010,ECG,-0.4790838785845971
40,1717965548010,ECG,-0.3555671588713812
12,1717965548014,ECG,0.08388088658200402
35,1717965548014,ECG,0.5406432118266148
29,1717965548015,ECG,0.4754450376414094
38,1717965548015,ECG,0.02535852335068687
17,1717965548016,ECG,0.5769254215767173
8,1717965548016,ECG,0.7647912339844248
21,1717965548017,ECG,0.2914835060575664
14,1717965548018,ECG,0.7419491877074913
47,1717965548018,ECG,0.010876034804752955
5,1717965548019,ECG,0.08750048323200962
9,1717965548019,ECG,0.17134655423676254
50,1717965548019,ECG,-0.2575656891159481
34,1717965548020,ECG,0.48020622633095345
43,1717965548020,ECG,0.2559257622637672
25,1717965548021,ECG,0.3237418538071318
13,1717965548021,ECG,-0.40921959237512134
39,1717965548022,ECG,-0.07037556806490267
49,1717965549002,ECG,0.4632851473192587
7,1717965549002,ECG,0.46514689314867974
23,1717965549002,ECG,0.5096265305213059
27,1717965549002,ECG,0.5538024645131906
32,1717965549002,ECG,-0.1754907595535125
45,1717965549003,ECG,-0.5367308308142749
26,1717965549003,ECG,-0.12767248297068629
10,1717965549003,ECG,0.641516843509208
19,1717965549003,ECG,-0.5085087656390493
4,1717965549003,ECG,0.3157797437393511
20,1717965549004,ECG,-0.4679931573182748
3,1717965549004,ECG,-0.5025056340441012
15,1717965549004,ECG,0.7740414442257436
42,1717965549004,ECG,-0.6086319062764939
28,1717965549004,ECG,-0.3213768627600725
37,1717965549004,ECG,0.7527966791446432
36,1717965549005,ECG,0.23145165829477715
11,1717965549005,ECG,-0.010099925917003654
46,1717965549003,ECG,-0.3144036803850995
22,1717965549005,ECG,-0.4001634805450805
18,1717965549005,ECG,-0.5589228348153559
6,1717965549004,ECG,-0.27667790104214823
44,1717965549007,ECG,-0.36574899964196833
30,1717965549008,ECG,-0.13444643237355805
41,1717965549008,ECG,0.49506169973653946
31,1717965549008,ECG,-0.2806798437686643
16,1717965549008,ECG,0.6948011586271827
1,1717965549008,ECG,-0.14773753013805824
24,1717965549008,ECG,-0.5974011108255871
48,1717965549009,ECG,-0.12697283795232656
33,1717965549009,ECG,-0.3219174517144086
2,1717965549010,ECG,0.29896369159439873
40,1717965549010,ECG,0.27556330791507155
12,1717965549014,ECG,0.3527321224423341
35,1717965549014,ECG,0.17977089065453805
29,1717965549015,ECG,0.25260156121359234
38,1717965549015,ECG,-0.32519775228424974
17,1717965549016,ECG,-0.12486722669702335
8,1717965549016,ECG,0.18744268990682633
21,1717965549017,ECG,0.18349853184124063
14,1717965549018,ECG,0.08875158584211061
47,1717965549018,ECG,-0.3146435392431062
5,1717965549019,ECG,0.7455806325361936
9,1717965549019,ECG,-0.07370688550185085
50,1717965549019,ECG,-0.3504948879726738
34,1717965549020,ECG,-0.38580587424040264
43,1717965549020,ECG,-0.21442417395476218
25,1717965549021,ECG,0.270907370355834
13,1717965549021,ECG,-0.5319378694790607
39,1717965549022,ECG,-0.2628109469969583
49,1717965550002,ECG,-0.21441691067820215
23,1717965550002,ECG,-0.37932864802760297
27,1717965550003,ECG,0.641024821571264
7,1717965550002,ECG,-0.3306637779754678
45,1717965550003,ECG,0.42811550023607714
26,1717965550003,ECG,0.2775395084246651
32,1717965550003,ECG,0.4586975403812736
10,1717965550003,ECG,0.3867615213825244
19,1717965550003,ECG,0.29920806711113873
46,1717965550003,ECG,0.051732274812394695
4,1717965550004,ECG,0.14822893009012156
20,1717965550004,ECG,0.7295208481182718
3,1717965550004,ECG,0.30231703722700687
15,1717965550004,ECG,0.3206695821158182
28,1717965550004,ECG,-0.062287136876208696
42,1717965550005,ECG,0.4852888475621693
37,1717965550005,ECG,-0.4495326888129339
6,1717965550005,ECG,-0.5023863015377519
36,1717965550005,ECG,-0.23952602995096622
11,1717965550005,ECG,-0.3923810186203573
18,1717965550006,ECG,-0.17787322567384958
22,1717965550006,ECG,0.20521632441214796
44,1717965550007,ECG,0.1478966676791844
30,1717965550007,ECG,-0.21847178336286638
41,1717965550007,ECG,0.1169481990123642
31,1717965550008,ECG,0.2249239530682371
16,1717965550008,ECG,0.6820215458712093
1,1717965550008,ECG,0.24016340937500155
24,1717965550009,ECG,0.02367193722816216
48,1717965550009,ECG,-0.26406531548592566
33,1717965550009,ECG,-0.319207215779685
2,1717965550010,ECG,0.31685683178765683
40,1717965550011,ECG,-0.03801937462746442
12,1717965550014,ECG,-0.476091192939405
35,1717965550014,ECG,0.33625898198084303
29,1717965550015,ECG,0.26119033690679283
38,1717965550016,ECG,0.019146399609349073
17,1717965550016,ECG,0.43320898957914233
8,1717965550016,ECG,0.23817012533173743
21,1717965550017,ECG,-0.3292119767271855
14,1717965550018,ECG,0.6257255721168545
47,1717965550018,ECG,0.04951832469503481
5,1717965550019,ECG,0.20833606071568264
9,1717965550019,ECG,0.18157642583481404
50,1717965550019,ECG,0.3338315691117967
34,1717965550020,ECG,0.3471638883589746
43,1717965550020,ECG,0.031083706383641108
25,1717965550021,ECG,0.18514084593935182
13,1717965550021,ECG,-0.35469786899646094
39,1717965550022,ECG,0.09603443161912623
49,1717965551000,ECG,0.10702303700808971
23,1717965551000,ECG,-0.34401319270366215
7,1717965551000,ECG,-0.124198442825655
32,1717965551001,ECG,-0.5349261478932928
45,1717965551001,ECG,-0.5741764386043055
26,1717965551001,ECG,-0.10221458060073885
10,1717965551001,ECG,0.09009065544617788
19,1717965551001,ECG,-0.04439470233997208
46,1717965551001,ECG,0.30351579547429913
27,1717965551001,ECG,-0.320677613218953
4,1717965551001,ECG,-0.5193512158780634
20,1717965551001,ECG,-0.5809619440033768
3,1717965551001,ECG,-0.3613320687859798
15,1717965551002,ECG,0.7452450434463758
28,1717965551002,ECG,0.25955297559303414
42,1717965551002,ECG,0.04233014725655653
37,1717965551002,ECG,0.4396685716262079
6,1717965551002,ECG,-0.20744170537165652
36,1717965551003,ECG,0.4774816444887767
11,1717965551003,ECG,0.19649649374572165
22,1717965551003,ECG,0.2941149417251228
18,1717965551003,ECG,-0.34136195974660777
44,1717965551008,ECG,-0.19017343708131218
41,1717965551008,ECG,-0.4724590063772554
30,1717965551008,ECG,0.06563989350609561
31,1717965551008,ECG,0.5254493017992957
16,1717965551008,ECG,0.06531009369158498
1,1717965551008,ECG,0.2890240913940621
24,1717965551008,ECG,0.26603730423325
48,1717965551009,ECG,-0.554860031488797
33,1717965551009,ECG,0.5322226165723759
2,1717965551010,ECG,-0.20317025935555807
40,1717965551010,ECG,-0.2866358606250322
12,1717965551014,ECG,0.45537746543484925
35,1717965551014,ECG,0.2724542119857011
29,1717965551015,ECG,-0.04706561589770968
38,1717965551015,ECG,0.20595070670712562
17,1717965551016,ECG,-0.4958044767701409
8,1717965551016,ECG,-0.08574164682853115
21,1717965551017,ECG,0.5167570371394252
14,1717965551018,ECG,0.40946778949105456
47,1717965551018,ECG,0.4292511265160758
5,1717965551019,ECG,-0.10832370765921798
9,1717965551019,ECG,0.45108156730989435
50,1717965551019,ECG,0.4225001788457258
34,1717965551020,ECG,0.5517253544616074
43,1717965551020,ECG,0.5303999627804228
25,1717965551021,ECG,-0.47917515337602784
13,1717965551021,ECG,0.27827871512540375
39,1717965551022,ECG,-0.01848305156298908
49,1717965552002,ECG,0.24630173743341421
23,1717965552002,ECG,0.2914398410362988
7,1717965552002,ECG,-0.34163408522524735
27,1717965552002,ECG,0.3602123471257208
32,1717965552003,ECG,0.29108212974028297
45,1717965552003,ECG,-0.25811580121508587
26,1717965552003,ECG,-0.5025433769086964
19,1717965552003,ECG,0.2699336661426181
46,1717965552003,ECG,-0.18064970071478265
4,1717965552003,ECG,-0.33409305665918987
10,1717965552003,ECG,0.6881700372076467
3,1717965552003,ECG,0.5027356457649608
15,1717965552004,ECG,-0.5662695189446847
28,1717965552004,ECG,-0.04827722910634091
42,1717965552004,ECG,-0.2678816517875501
20,1717965552003,ECG,-0.2459056448633672
37,1717965552004,ECG,0.6918457214776788
6,1717965552004,ECG,0.48533436172629657
36,1717965552004,ECG,-0.3000301813107627
11,1717965552004,ECG,0.2748402854974624
22,1717965552004,ECG,0.120231137161236
18,1717965552004,ECG,0.09495784920313949
44,1717965552008,ECG,0.7582195161487093
30,1717965552008,ECG,0.06712993835021072
41,1717965552008,ECG,-0.1938614506525595
31,1717965552008,ECG,0.6634956638056551
16,1717965552008,ECG,0.262959553723267
1,1717965552008,ECG,0.2061788142318172
24,1717965552008,ECG,0.4713949078187403
48,1717965552009,ECG,0.6849743865159277
33,1717965552009,ECG,-0.5133237292517366
2,1717965552010,ECG,0.16904877904234186
40,1717965552010,ECG,0.6773357095603049
12,1717965552014,ECG,-0.32361771439899867
35,1717965552014,ECG,0.7068383606011633
29,1717965552015,ECG,-0.46642632643095466
38,1717965552015,ECG,-0.2614454695902515
17,1717965552016,ECG,-0.3864126464906607
8,1717965552016,ECG,0.5917276186721508
21,1717965552017,ECG,0.28069702964539484
14,1717965552018,ECG,-0.2702252067370628
47,1717965552018,ECG,-0.24512739361206898
5,1717965552019,ECG,-0.3020027354950224
9,1717965552019,ECG,0.7305172859950305
50,1717965552019,ECG,-0.3267709520043667
34,1717965552020,ECG,0.7756787044495783
43,1717965552020,ECG,0.20290552795626426
25,1717965552021,ECG,-0.12624458746419195
13,1717965552021,ECG,0.37107464724038447
39,1717965552022,ECG,0.31158588568519247
49,1717965553002,ECG,-0.11987579152587971
7,1717965553002,ECG,-0.4383408454729393
23,1717965553002,ECG,0.18835403489133523
27,1717965553003,ECG,-0.5805809483638327
32,1717965553003,ECG,-0.05797477832954401
26,1717965553003,ECG,0.7751625227125346
45,1717965553003,ECG,0.2644487122394881
19,1717965553003,ECG,0.2059576891656442
10,1717965553003,ECG,-0.008224786435624812
46,1717965553004,ECG,0.5244104686569683
4,1717965553004,ECG,0.5792539677974251
20,1717965553004,ECG,-0.09542649005216451
3,1717965553004,ECG,-0.4730847083563929
15,1717965553004,ECG,-0.1778287121095464
28,1717965553004,ECG,0.0866146192019982
42,1717965553004,ECG,-0.04066573900431783
37,1717965553004,ECG,0.12013358418067269
36,1717965553005,ECG,-0.46661925788092773
6,1717965553005,ECG,-0.21441591249473668
11,1717965553005,ECG,-0.04389849783117171
18,1717965553005,ECG,0.3622706688363919
22,1717965553005,ECG,0.5064613172779575
44,1717965553007,ECG,0.70790236677823
30,1717965553007,ECG,0.02069722879393176
41,1717965553008,ECG,-0.3995305940904208
31,1717965553008,ECG,0.33106366896661704
16,1717965553008,ECG,-0.1310221930620525
1,1717965553008,ECG,-0.19297057422392813
24,1717965553008,ECG,0.23812445898780868
48,1717965553009,ECG,-0.31849322319003137
33,1717965553009,ECG,0.6069452680397156
2,1717965553010,ECG,0.25552043649938383
40,1717965553010,ECG,-0.05934761292457754
12,1717965553014,ECG,-0.579136203003732
35,1717965553014,ECG,-0.01579002401874739
29,1717965553015,ECG,0.2868073825875821
38,1717965553015,ECG,-0.13437082599751304
17,1717965553016,ECG,0.5085121125553824
8,1717965553016,ECG,0.010726818903371786
21,1717965553017,ECG,-0.47784357784510795
14,1717965553018,ECG,-0.19434968318435694
47,1717965553018,ECG,0.1628616486681755
5,1717965553019,ECG,0.2683455206282436
9,1717965553019,ECG,0.028155932095249504
50,1717965553019,ECG,0.5749974698554281
34,1717965553020,ECG,0.32953763336676356
43,1717965553020,ECG,0.21435357540917002
25,1717965553021,ECG,0.40078150940065804
13,1717965553021,ECG,-0.040752171273164675
39,1717965553022,ECG,0.09019659937450794
49,1717965554002,ECG,-0.29481993843128507
23,1717965554002,ECG,-0.4787269606072425
7,1717965554002,ECG,0.2903117487323604
27,1717965554002,ECG,0.5151124750399265
32,1717965554003,ECG,0.2977660386165264
45,1717965554003,ECG,-0.30614005711179926
19,1717965554003,ECG,-0.1307745203714659
46,1717965554003,ECG,0.23942748963085536
20,1717965554003,ECG,-0.5318628207062105
3,1717965554003,ECG,-0.5959841912008503
15,1717965554003,ECG,-0.6203938492488423
28,1717965554003,ECG,0.11365378149732933
42,1717965554004,ECG,-0.10179332135992682
4,1717965554003,ECG,0.6708837305881379
37,1717965554004,ECG,-0.3952254814482381
6,1717965554004,ECG,0.17429163004490342
11,1717965554004,ECG,0.09368314110427586
22,1717965554004,ECG,0.22566120171180704
26,1717965554003,ECG,-0.16664520862930082
18,1717965554004,ECG,0.5302069174552748
10,1717965554003,ECG,-0.35555528058491814
36,1717965554004,ECG,0.3601683298919975
44,1717965554008,ECG,0.2943911888561446
30,1717965554008,ECG,0.5398984395031649
41,1717965554008,ECG,0.13669484976177426
31,1717965554008,ECG,-0.3097115116950293
16,1717965554008,ECG,-0.22560891548335407
1,1717965554008,ECG,0.21217463833573705
24,1717965554008,ECG,0.6438516808621846
48,1717965554009,ECG,0.7682908532166699
33,1717965554009,ECG,0.3387511867898359
2,1717965554010,ECG,0.2899444619743749
40,1717965554010,ECG,0.753118992322713
12,1717965554014,ECG,0.7118432006153371
35,1717965554014,ECG,0.23766985595002066
29,1717965554015,ECG,0.20021351571782822
38,1717965554015,ECG,0.7558091060287467
17,1717965554016,ECG,0.03694448944933294
8,1717965554016,ECG,0.2540667171814818
21,1717965554017,ECG,-0.11223206265446241
14,1717965554018,ECG,-0.22339841073613642
47,1717965554018,ECG,0.006608829637505871
5,1717965554019,ECG,0.07777995608826109
9,1717965554019,ECG,0.49269299326549393
50,1717965554019,ECG,-0.570044678126681
34,1717965554020,ECG,0.04373863123803587
43,1717965554020,ECG,0.7630824395136351
25,1717965554021,ECG,0.3957876250621562
13,1717965554021,ECG,-0.2989396877986827
39,1717965554022,ECG,-0.500415934932386
23,1717965555001,ECG,-0.44174019840531736
7,1717965555001,ECG,0.2649516398639419
49,1717965555000,ECG,-0.1489050631796722
27,1717965555001,ECG,0.660040139934088
32,1717965555001,ECG,0.4338410069499843
26,1717965555001,ECG,-0.06654245584461911
45,1717965555001,ECG,0.752501054507253
10,1717965555001,ECG,-0.44980663483229866
19,1717965555002,ECG,0.03265808699547282
46,1717965555002,ECG,-0.6146774363988114
3,1717965555002,ECG,-0.20623069963474924
15,1717965555002,ECG,0.16973000688166445
28,1717965555002,ECG,-0.36473974001106746
42,1717965555002,ECG,-0.5273396088966216
37,1717965555002,ECG,0.04332917358430486
6,1717965555002,ECG,0.2187079455387478
20,1717965555002,ECG,0.17148787274472016
36,1717965555003,ECG,0.20992806389325913
4,1717965555002,ECG,-0.16806977457700722
11,1717965555003,ECG,0.5125156962344348
22,1717965555003,ECG,0.4070753555166706
18,1717965555003,ECG,-0.006693168594155063
44,1717965555008,ECG,0.18015849816670648
30,1717965555008,ECG,-0.3725518077954056
31,1717965555008,ECG,-0.5753945830463453
16,1717965555008,ECG,-0.21808812386105916
1,1717965555008,ECG,0.7858116314081243
41,1717965555008,ECG,0.08764546734458374
24,1717965555008,ECG,-0.585061042629603
48,1717965555009,ECG,0.06051246741807802
33,1717965555009,ECG,0.7602303544047598
2,1717965555010,ECG,0.20053860589275935
40,1717965555010,ECG,-0.20296898587315407
12,1717965555014,ECG,-0.14953924491119755
35,1717965555014,ECG,0.4965115838604057
29,1717965555015,ECG,0.2586582159183904
38,1717965555015,ECG,-0.5432284087244253
17,1717965555016,ECG,-0.34719495245297616
8,1717965555016,ECG,0.049747534515204236
21,1717965555017,ECG,-0.23765238159443225
14,1717965555018,ECG,-0.2845350207439587
47,1717965555018,ECG,0.6538163851261323
5,1717965555019,ECG,-0.06125532117648088
9,1717965555019,ECG,-0.17809299446221988
50,1717965555019,ECG,0.16999277623876513
34,1717965555020,ECG,-0.2222222099005552
43,1717965555020,ECG,-0.4847648875877888
25,1717965555021,ECG,0.27454764177514823
13,1717965555021,ECG,-0.3395520198224001
39,1717965555022,ECG,-0.085426600187195
7,1717965556000,ECG,0.10498343478447168
49,1717965556000,ECG,0.2698952861769301
23,1717965556000,ECG,0.07527340404194108
27,1717965556000,ECG,-0.009354596373144342
32,1717965556000,ECG,0.5397284648419367
26,1717965556001,ECG,0.312659142081823
45,1717965556001,ECG,0.04091765124509242
10,1717965556001,ECG,0.7440418616766542
19,1717965556001,ECG,-0.14307520869264836
46,1717965556001,ECG,-0.028332336775366826
20,1717965556001,ECG,0.5181902532478729
3,1717965556001,ECG,0.4748672108537038
15,1717965556001,ECG,0.028671661936146342
28,1717965556002,ECG,-0.1396516094383218
4,1717965556001,ECG,-0.0076774023616302915
42,1717965556002,ECG,-0.34031647794730235
37,1717965556002,ECG,0.20565413467601257
6,1717965556002,ECG,0.3004180462823952
36,1717965556003,ECG,-0.5066113727273025
11,1717965556003,ECG,0.5030634494277093
22,1717965556003,ECG,-0.07911302987636892
18,1717965556003,ECG,-0.18576166451109738
44,1717965556008,ECG,-0.5213823253718318
41,1717965556008,ECG,-0.014125049852803787
30,1717965556008,ECG,0.2089013970004469
31,1717965556008,ECG,0.616423058319724
1,1717965556008,ECG,0.7372825720269482
16,1717965556008,ECG,-0.2812165977026668
24,1717965556008,ECG,0.17287327291791157
48,1717965556009,ECG,0.010508339178211354
33,1717965556009,ECG,-0.4686540341430563
2,1717965556010,ECG,0.2786897811799616
40,1717965556010,ECG,0.2568630740341109
12,1717965556014,ECG,-0.3780936748074217
35,1717965556014,ECG,0.5103087206697878
29,1717965556015,ECG,0.13463367560713224
38,1717965556015,ECG,-0.5033682051349468
17,1717965556016,ECG,-0.4827362729398346
8,1717965556016,ECG,0.2710921708224589
21,1717965556017,ECG,0.13988975440425716
14,1717965556018,ECG,-0.5368735328507019
47,1717965556018,ECG,0.7648682696723752
5,1717965556019,ECG,0.2763755884947433
9,1717965556019,ECG,-0.39806799794815817
50,1717965556019,ECG,0.19107712597471208
34,1717965556020,ECG,0.20711219407292422
43,1717965556020,ECG,-0.43056097454823367
25,1717965556021,ECG,0.7879841443122799
13,1717965556021,ECG,0.0971700925035076
39,1717965556022,ECG,0.28362813257554587
27,1717965557003,ECG,-0.5363695211692654
49,1717965557003,ECG,-0.34455667310046617
45,1717965557004,ECG,0.5772855979211567
7,1717965557004,ECG,-0.2521046155780851
32,1717965557003,ECG,-0.1181690762514915
23,1717965557003,ECG,0.5114340531705014
26,1717965557005,ECG,0.2767720695436452
10,1717965557005,ECG,0.5319493361535502
19,1717965557005,ECG,0.39028876560858655
4,1717965557006,ECG,0.15092721218170754
20,1717965557006,ECG,0.27228516603687214
3,1717965557006,ECG,-0.3250942171574802
15,1717965557010,ECG,0.23943298535667318
42,1717965557010,ECG,0.5473143002686353
11,1717965557010,ECG,0.4448316487949021
22,1717965557010,ECG,0.7210820075315083
44,1717965557011,ECG,0.04745406404355694
30,1717965557011,ECG,0.102476917950756
46,1717965557005,ECG,-0.49394059482785996
28,1717965557010,ECG,0.7657826813909601
41,1717965557011,ECG,-0.4790586724799982
16,1717965557011,ECG,0.7155599689943755
37,1717965557010,ECG,0.24212379681500062
1,1717965557011,ECG,0.36408970730734075
6,1717965557010,ECG,-0.5241157194773978
48,1717965557011,ECG,0.2740647592493725
33,1717965557012,ECG,-0.5969519546096032
2,1717965557012,ECG,0.4688074292791108
24,1717965557011,ECG,-0.2882692328069404
18,1717965557011,ECG,-0.26807674162609324
40,1717965557012,ECG,-0.14917626422320618
36,1717965557010,ECG,0.754387827851452
31,1717965557011,ECG,0.6108036158849919
12,1717965557014,ECG,0.18450080189697246
35,1717965557014,ECG,-0.25239226633653755
29,1717965557015,ECG,0.6390914665338258
38,1717965557015,ECG,0.15764699454353248
17,1717965557016,ECG,-0.26669251633176067
8,1717965557016,ECG,-0.3024875257913117
21,1717965557017,ECG,-0.33597155121776556
14,1717965557018,ECG,-0.5038957768747866
47,1717965557018,ECG,-0.10290167122912595
5,1717965557019,ECG,0.674541908383164
9,1717965557019,ECG,-0.0724753145421828
50,1717965557019,ECG,0.7313783870043561
34,1717965557020,ECG,-0.01757253981126115
43,1717965557020,ECG,-0.02508643649373883
25,1717965557021,ECG,0.6701316380914054
13,1717965557021,ECG,0.11865951899649764
39,1717965557022,ECG,-0.07424723072849085
7,1717965558002,ECG,-0.32440612541435715
49,1717965558002,ECG,-0.3279159853307324
23,1717965558002,ECG,-0.23178987240332574
27,1717965558003,ECG,-0.06512778314127493
32,1717965558003,ECG,0.01375758594752674
45,1717965558003,ECG,-0.41856763247208145
26,1717965558003,ECG,-0.34140641152128204
10,1717965558003,ECG,0.4750615845442749
4,1717965558003,ECG,0.1426687749811652
20,1717965558003,ECG,-0.1379419546657777
46,1717965558003,ECG,0.31092766737156463
3,1717965558003,ECG,0.23525434259746048
15,1717965558004,ECG,0.13427579454945904
28,1717965558004,ECG,-0.004304723150519163
42,1717965558004,ECG,0.7623837663377641
6,1717965558004,ECG,0.025945921381065058
19,1717965558003,ECG,0.1391513172085835
36,1717965558004,ECG,0.7329752438878357
11,1717965558004,ECG,0.46767402683277637
22,1717965558004,ECG,0.6420460135281966
37,1717965558004,ECG,-0.46376009493051923
18,1717965558005,ECG,-0.5051840228272013
44,1717965558008,ECG,-0.12472920452403953
30,1717965558008,ECG,-0.26645190984389866
41,1717965558008,ECG,-0.46364053426814866
31,1717965558008,ECG,-0.0012729869334220274
16,1717965558008,ECG,0.28391337666170835
1,1717965558008,ECG,-0.38258636132654006
24,1717965558008,ECG,0.09570334840775412
48,1717965558009,ECG,-0.33035717871064285
33,1717965558009,ECG,-0.05888673844407909
2,1717965558010,ECG,0.7287178284061782
40,1717965558010,ECG,-0.09894592142058492
12,1717965558014,ECG,0.08259526591609581
35,1717965558014,ECG,-0.3815109149842773
29,1717965558015,ECG,0.2789561196648547
38,1717965558015,ECG,0.5195675174739056
17,1717965558016,ECG,0.087143997716195
8,1717965558016,ECG,-0.5819570529374423
21,1717965558017,ECG,-0.3056996401591037
14,1717965558018,ECG,0.08112034842614552
47,1717965558018,ECG,-0.5200808621031395
5,1717965558019,ECG,0.7044518263303785
9,1717965558019,ECG,-0.25147806574854453
50,1717965558019,ECG,-0.5867172627608759
34,1717965558020,ECG,-0.10012880150558255
43,1717965558020,ECG,0.3985924326705191
25,1717965558021,ECG,-0.17666090360975237
13,1717965558021,ECG,-0.24473367469304455
39,1717965558022,ECG,0.20599047835333273
49,1717965559002,ECG,-0.1900241886746143
7,1717965559002,ECG,-0.31364862733433463
23,1717965559002,ECG,0.19298061561482052
27,1717965559002,ECG,0.24270003099908607
45,1717965559003,ECG,-0.059821541219354096
26,1717965559003,ECG,-0.5111074179438617
10,1717965559003,ECG,-0.42123744485969417
19,1717965559003,ECG,-0.10608324764193891
46,1717965559003,ECG,0.4305330732149054
4,1717965559003,ECG,0.24460759604722693
3,1717965559003,ECG,-0.6184703979364026
15,1717965559003,ECG,-0.25432314860203187
20,1717965559003,ECG,-0.06247647878538269
28,1717965559003,ECG,0.22495023111433138
42,1717965559004,ECG,0.456449028571416
37,1717965559004,ECG,-0.19843536365693717
6,1717965559004,ECG,-0.585566984068415
32,1717965559002,ECG,-0.5096980656775163
36,1717965559004,ECG,-0.18086491025150897
11,1717965559004,ECG,-0.01148116880000662
22,1717965559004,ECG,-0.3309649615417651
18,1717965559004,ECG,0.6946426455949297
44,1717965559007,ECG,-0.3233354711014081
41,1717965559008,ECG,-0.38352078363625985
30,1717965559008,ECG,-0.5112258020241851
31,1717965559008,ECG,-0.46088841282379645
16,1717965559008,ECG,-0.31520494879354727
1,1717965559008,ECG,0.29128351423852183
24,1717965559008,ECG,0.5504345387223052
48,1717965559009,ECG,-0.24496246786337533
33,1717965559009,ECG,0.5187791196559586
2,1717965559010,ECG,-0.07990658157811462
40,1717965559010,ECG,0.4412556303497877
12,1717965559014,ECG,-0.5409360922029126
35,1717965559014,ECG,0.16139939050984503
29,1717965559015,ECG,-0.22734210698068819
38,1717965559015,ECG,-0.47610266893065584
17,1717965559016,ECG,0.2827448475885695
8,1717965559016,ECG,0.5476274954954662
21,1717965559017,ECG,-0.493367563192322
14,1717965559018,ECG,-0.578816776965565
47,1717965559018,ECG,-0.2424018930830666
5,1717965559019,ECG,-0.5815773131542585
9,1717965559019,ECG,0.30520708979697
50,1717965559019,ECG,0.48644935136435186
34,1717965559020,ECG,0.7260392763735838
43,1717965559020,ECG,0.16925361100182784
25,1717965559021,ECG,0.6723184544356737
13,1717965559021,ECG,0.46864417597025076
39,1717965559022,ECG,-0.5754284484803638
49,1717965560002,ECG,-0.40787707955166
7,1717965560002,ECG,-0.23679483502897353
23,1717965560002,ECG,-0.11514847493527705
27,1717965560002,ECG,-0.4507704243286372
19,1717965560003,ECG,-0.008642813187212557
10,1717965560003,ECG,-0.3247408864513075
4,1717965560003,ECG,-0.1385329240062363
32,1717965560003,ECG,-0.16054003545333326
20,1717965560003,ECG,0.3087873009770129
45,1717965560003,ECG,-0.5000750579544893
3,1717965560003,ECG,-0.5789535103104904
15,1717965560003,ECG,0.3855803874865476
26,1717965560003,ECG,-0.11297132031890082
42,1717965560004,ECG,0.29350315691396733
46,1717965560003,ECG,0.10332891742966394
37,1717965560004,ECG,0.5502127303522879
6,1717965560004,ECG,-0.304793070402981
36,1717965560004,ECG,0.28138118817080776
11,1717965560004,ECG,-0.17940507026537428
22,1717965560004,ECG,-0.39146062813501126
28,1717965560003,ECG,0.24979914162615638
18,1717965560004,ECG,-0.5716014307683361
44,1717965560007,ECG,-0.03363746613293852
30,1717965560007,ECG,-0.604470656994392
41,1717965560007,ECG,0.4449292264031826
31,1717965560008,ECG,-0.2134601254734342
16,1717965560008,ECG,-0.5392240119629741
1,1717965560008,ECG,-0.3463141438734799
24,1717965560008,ECG,-0.5929590998583011
48,1717965560009,ECG,0.5050602732860201
33,1717965560009,ECG,0.6790808065973487
2,1717965560010,ECG,0.7463974840903024
40,1717965560010,ECG,0.36387607551687196
12,1717965560014,ECG,0.32024134143367916
35,1717965560014,ECG,0.5973059630899237
29,1717965560015,ECG,-0.325259501998437
38,1717965560015,ECG,-0.28700725255778015
17,1717965560016,ECG,0.2272440208663054
8,1717965560016,ECG,0.15424575035727228
21,1717965560017,ECG,-0.19768431415201637
14,1717965560018,ECG,0.3994538265319828
47,1717965560018,ECG,-0.011518180653739135
5,1717965560019,ECG,0.0486225582786413
9,1717965560019,ECG,-0.5014504849213862
50,1717965560019,ECG,-0.6077734339271562
34,1717965560020,ECG,-0.09845829924610092
43,1717965560020,ECG,0.19589932387123804
25,1717965560021,ECG,0.1642729537670866
13,1717965560021,ECG,0.26433646964461777
39,1717965560022,ECG,-0.2669154624250914
49,1717965561002,ECG,-0.44804438851118816
7,1717965561002,ECG,0.2086386378577739
23,1717965561003,ECG,0.46845258456228095
27,1717965561003,ECG,0.5720742441223508
45,1717965561003,ECG,0.19767726808104313
32,1717965561003,ECG,-0.28998766384761887
26,1717965561003,ECG,0.19079890827925555
4,1717965561004,ECG,-0.44752145028945156
42,1717965561004,ECG,0.30769489774128056
28,1717965561004,ECG,-0.5705374835046193
19,1717965561004,ECG,-0.18147511764425822
15,1717965561004,ECG,-0.5978300412010763
10,1717965561004,ECG,-0.32096897089688226
20,1717965561004,ECG,-0.4735311418767922
3,1717965561004,ECG,0.785038125412991
37,1717965561005,ECG,-0.548860350523158
46,1717965561004,ECG,-0.4313947969506876
6,1717965561005,ECG,0.5323103810218487
36,1717965561006,ECG,0.48491612214439656
11,1717965561006,ECG,-0.21620292236477584
22,1717965561006,ECG,0.49787109952327013
18,1717965561006,ECG,-0.08896096580920737
44,1717965561007,ECG,-0.5310101237954001
30,1717965561007,ECG,0.10525981172349447
41,1717965561007,ECG,-0.3440004134780738
31,1717965561008,ECG,0.04973609038030062
16,1717965561008,ECG,0.2520210466679429
1,1717965561008,ECG,-0.6209283505189604
24,1717965561008,ECG,0.4588677811089919
33,1717965561009,ECG,-0.2302959872638612
40,1717965561010,ECG,0.631009613001291
48,1717965561009,ECG,-0.3340558445630672
2,1717965561010,ECG,0.3418039270063011
12,1717965561014,ECG,-0.6081288418471782
35,1717965561014,ECG,0.2641103075443959
29,1717965561015,ECG,-0.4686166832496657
8,1717965561016,ECG,0.23292385705279914
38,1717965561015,ECG,-0.6075790068607493
17,1717965561016,ECG,-0.4853058036388641
21,1717965561017,ECG,0.30210753012406477
14,1717965561018,ECG,0.31625649631642916
47,1717965561018,ECG,-0.4682211938738403
5,1717965561019,ECG,-0.30950060958582787
9,1717965561019,ECG,-0.01802643664914625
50,1717965561019,ECG,0.03926015835497719
34,1717965561020,ECG,0.2701752822240268
43,1717965561020,ECG,-0.4844388941999471
25,1717965561021,ECG,-0.32107837080380697
13,1717965561021,ECG,0.15562375096633352
39,1717965561022,ECG,-0.027963418806928757
49,1717965562001,ECG,-0.5401300409183124
7,1717965562001,ECG,0.1796701127900548
23,1717965562001,ECG,0.615497299628466
27,1717965562001,ECG,-0.5831586763661092
32,1717965562001,ECG,0.10758727274909635
45,1717965562001,ECG,-0.15346491618772953
26,1717965562001,ECG,-0.5142001378198532
46,1717965562001,ECG,-0.2723196598479899
19,1717965562001,ECG,0.3043597845496703
4,1717965562002,ECG,-0.3803139845572724
20,1717965562002,ECG,0.3899656528800642
10,1717965562001,ECG,0.04808755926891171
3,1717965562002,ECG,-0.16371488414310104
15,1717965562002,ECG,-0.388074390437103
28,1717965562002,ECG,-0.5375251889031732
42,1717965562002,ECG,0.041536984015481296
37,1717965562002,ECG,0.6673171987500455
6,1717965562002,ECG,0.5076545212679265
36,1717965562003,ECG,0.4664244754087068
11,1717965562003,ECG,-0.2915203719677905
22,1717965562003,ECG,0.474524145814341
18,1717965562003,ECG,-0.5056800320730253
44,1717965562008,ECG,-0.3057704430083586
30,1717965562008,ECG,-0.20976302060136898
48,1717965562009,ECG,-0.09466716618643739
41,1717965562008,ECG,-0.24590744720484384
33,1717965562009,ECG,-0.3137721577680988
31,1717965562008,ECG,0.6649181254301136
16,1717965562008,ECG,0.5403339750181129
1,1717965562008,ECG,0.4281024609068904
24,1717965562008,ECG,-0.3261051044167321
2,1717965562010,ECG,-0.4999932999518123
40,1717965562010,ECG,-0.0792740186889827
12,1717965562014,ECG,7.307295044329584E-4
35,1717965562014,ECG,-0.5862941842520406
29,1717965562015,ECG,-0.05519849444499197
38,1717965562015,ECG,-0.5896994660351382
17,1717965562016,ECG,0.3495051102729458
8,1717965562016,ECG,-0.6132575170844353
21,1717965562017,ECG,0.07974638486177497
14,1717965562018,ECG,-0.240156955493802
47,1717965562018,ECG,0.504963318894175
5,1717965562019,ECG,-0.14273877852264644
9,1717965562019,ECG,-0.5843903114456548
50,1717965562019,ECG,-0.46212615206527213
34,1717965562020,ECG,-0.23563498606331554
43,1717965562020,ECG,-0.6023300245032734
25,1717965562021,ECG,0.47354423524108163
13,1717965562021,ECG,0.016454205492869443
39,1717965562022,ECG,-0.4392047659794388
49,1717965563002,ECG,-0.5945929876871079
7,1717965563002,ECG,-0.20897681162824355
27,1717965563003,ECG,0.33026117131272165
32,1717965563003,ECG,0.0023662623644624473
23,1717965563002,ECG,0.5731350850223577
45,1717965563003,ECG,0.2864361231580364
10,1717965563003,ECG,-0.2549011998832228
26,1717965563003,ECG,-0.04589981525337522
19,1717965563003,ECG,0.2080124507588435
4,1717965563003,ECG,0.6876052332465572
20,1717965563003,ECG,-0.3658269199533073
3,1717965563004,ECG,-0.5260333813262453
28,1717965563004,ECG,0.7084955700575938
42,1717965563004,ECG,0.647406071515923
15,1717965563004,ECG,-0.3174471058008492
46,1717965563004,ECG,0.736580758153085
37,1717965563004,ECG,0.5241108624639724
6,1717965563004,ECG,0.3936813712271919
36,1717965563004,ECG,-0.39120956003711344
11,1717965563004,ECG,-0.5047456362913177
22,1717965563004,ECG,-0.36310861360366287
18,1717965563004,ECG,0.2398862051341205
44,1717965563007,ECG,0.5285534224400664
30,1717965563008,ECG,0.5671910561242288
31,1717965563008,ECG,0.47052337454299087
41,1717965563008,ECG,-0.31800021683988444
16,1717965563008,ECG,-0.2799022910552852
1,1717965563008,ECG,-0.11427129132505043
24,1717965563008,ECG,-0.3187213338374264
48,1717965563009,ECG,0.36069195543178817
33,1717965563009,ECG,-0.28940060874410634
2,1717965563010,ECG,0.7073061340686223
40,1717965563010,ECG,0.3268535040726309
12,1717965563014,ECG,0.685379611982615
35,1717965563014,ECG,-0.19411091605960817
29,1717965563015,ECG,0.2212158551397017
8,1717965563016,ECG,0.38335467082660707
38,1717965563015,ECG,-0.20573729753392428
21,1717965563017,ECG,0.44553565511289384
17,1717965563016,ECG,0.25158916243428875
14,1717965563018,ECG,0.7093734269722689
47,1717965563018,ECG,-0.2318257084802293
50,1717965563019,ECG,0.5384189125757223
5,1717965563019,ECG,-0.46698723958206423
34,1717965563020,ECG,0.2864525165955386
9,1717965563019,ECG,-0.3000235763373404
43,1717965563020,ECG,-0.5080793664869195
25,1717965563021,ECG,-0.5861687974087444
13,1717965563021,ECG,-0.3627719207449306
39,1717965563022,ECG,0.7775428123486284
7,1717965564000,ECG,-0.2256266390128964
49,1717965564000,ECG,-0.3545948337116309
27,1717965564001,ECG,0.10169916823038554
23,1717965564000,ECG,0.06814237687819721
32,1717965564001,ECG,0.16774096537873182
45,1717965564001,ECG,-0.5490455355993523
26,1717965564001,ECG,-0.19199326032693867
19,1717965564001,ECG,-0.2681318615199345
4,1717965564001,ECG,0.19057734737236035
20,1717965564001,ECG,-0.16886267585870918
46,1717965564001,ECG,-0.4085226714347147
3,1717965564001,ECG,-0.05223137957457132
15,1717965564001,ECG,-0.12086926775392162
10,1717965564001,ECG,-0.07120687617084842
28,1717965564002,ECG,-0.38695854505017385
42,1717965564002,ECG,0.23656879721084295
37,1717965564002,ECG,0.2168972616314961
6,1717965564002,ECG,0.5361394539764045
36,1717965564003,ECG,-0.471186548728632
11,1717965564003,ECG,0.07627560610879444
22,1717965564003,ECG,0.5262801564420865
18,1717965564003,ECG,-0.3253190081289372
44,1717965564008,ECG,0.5982558149848541
30,1717965564008,ECG,-0.39504589549978986
41,1717965564008,ECG,0.2419769521417464
31,1717965564008,ECG,-0.22126904708931766
16,1717965564008,ECG,0.45740484559005384
24,1717965564008,ECG,-0.09243348859140958
1,1717965564008,ECG,-0.2810379216045823
48,1717965564009,ECG,0.1274334011322942
33,1717965564009,ECG,0.2368454646158523
2,1717965564010,ECG,-0.5941692173087704
40,1717965564010,ECG,-0.09568014137545197
12,1717965564014,ECG,-0.5554234449012153
35,1717965564014,ECG,0.16617396070290918
29,1717965564015,ECG,0.7814689542660868
38,1717965564015,ECG,0.4908010601102165
17,1717965564016,ECG,0.15917564147278201
8,1717965564016,ECG,0.5211233563028657
21,1717965564017,ECG,-0.5088196774130147
14,1717965564018,ECG,0.6751969097749692
47,1717965564018,ECG,0.05110770106898886
5,1717965564019,ECG,0.2991244958520817
9,1717965564019,ECG,0.21035573981852942
50,1717965564019,ECG,0.4137869260320207
34,1717965564020,ECG,-0.48921388304242863
43,1717965564020,ECG,-0.48629077455742803
25,1717965564021,ECG,-0.20168597703631194
13,1717965564021,ECG,0.12371734740551349
39,1717965564022,ECG,-0.03110328500964027
49,1717965565002,ECG,0.08998392915428172
7,1717965565002,ECG,0.029596859992241112
23,1717965565002,ECG,-0.23365544628550625
27,1717965565002,ECG,0.23887853447404295
45,1717965565003,ECG,0.08896255994013094
10,1717965565003,ECG,0.27964551369152807
19,1717965565003,ECG,0.4089068980966285
26,1717965565003,ECG,0.20642188525434016
46,1717965565003,ECG,-0.5073269304850208
4,1717965565003,ECG,-0.2631045886115472
20,1717965565003,ECG,0.19127778106379917
3,1717965565003,ECG,0.2582712985380112
15,1717965565003,ECG,0.08724994066144509
28,1717965565003,ECG,0.044967263236796506
42,1717965565004,ECG,-0.5723691110284767
37,1717965565004,ECG,0.16715756566620815
6,1717965565004,ECG,-0.29472453994832054
32,1717965565002,ECG,0.7697113919170492
36,1717965565004,ECG,-0.1752133335787441
11,1717965565004,ECG,-0.08685355339600226
18,1717965565004,ECG,-0.33044710754717643
22,1717965565004,ECG,0.2851486314669629
44,1717965565008,ECG,0.6865687723893871
30,1717965565008,ECG,0.7423193031947402
31,1717965565008,ECG,-0.3390286051226349
41,1717965565008,ECG,-0.08740790597507041
16,1717965565008,ECG,-0.04749639557014158
1,1717965565008,ECG,-0.18336123066803434
24,1717965565008,ECG,-0.3108579196390018
48,1717965565009,ECG,-0.2592826445755754
33,1717965565009,ECG,0.27542234112277003
2,1717965565010,ECG,-0.22959432056089607
40,1717965565010,ECG,0.30586809055810094
12,1717965565014,ECG,0.23066932056639294
35,1717965565014,ECG,0.2704167575976496
29,1717965565015,ECG,0.7574043361082464
38,1717965565015,ECG,-0.17302541351733472
17,1717965565016,ECG,-0.3307693179609755
8,1717965565016,ECG,-0.3302083732592992
21,1717965565017,ECG,-0.14222900911129008
14,1717965565018,ECG,-0.34877626594880284
47,1717965565018,ECG,0.4886727715908268
5,1717965565019,ECG,0.7183451725076766
9,1717965565019,ECG,0.21493483918046666
50,1717965565019,ECG,-0.24331199317745664
34,1717965565020,ECG,-0.18011455391357487
43,1717965565020,ECG,0.014447187512365706
25,1717965565021,ECG,-0.2607903714697879
13,1717965565021,ECG,0.3049351137875599
39,1717965565022,ECG,0.6217587795793907
7,1717965566002,ECG,0.3124804948760019
49,1717965566002,ECG,-0.21089579836339017
23,1717965566002,ECG,-0.6146769123031773
27,1717965566002,ECG,-0.2327180952540938
45,1717965566003,ECG,0.43860932696075566
32,1717965566003,ECG,-0.31469525388167663
10,1717965566003,ECG,0.09098540183067122
4,1717965566003,ECG,0.01693736414810062
26,1717965566003,ECG,0.3959752519039919
46,1717965566003,ECG,-0.41347065898873975
19,1717965566003,ECG,0.3670725544714089
15,1717965566003,ECG,-0.03439755174147681
28,1717965566003,ECG,-0.4442859474885941
42,1717965566004,ECG,-0.1813284084411732
20,1717965566003,ECG,-0.0703174879021243
6,1717965566004,ECG,-0.18517562182230268
36,1717965566004,ECG,-0.004026025843658576
3,1717965566003,ECG,-0.28817557713229447
22,1717965566004,ECG,-0.4074302726785903
18,1717965566004,ECG,-0.5308147538514938
37,1717965566004,ECG,-0.4796326115619938
11,1717965566004,ECG,0.17332649401622494
44,1717965566008,ECG,0.23828805077258894
30,1717965566008,ECG,0.14677469529213105
41,1717965566008,ECG,0.281300755072363
31,1717965566008,ECG,0.19566997478843712
16,1717965566008,ECG,0.5454034889759708
1,1717965566008,ECG,0.28386489595006614
24,1717965566008,ECG,0.6509276839818104
48,1717965566009,ECG,0.022915587788236137
33,1717965566009,ECG,-0.14510329726676785
2,1717965566010,ECG,0.12592017502927014
40,1717965566010,ECG,-0.0741583903169003
12,1717965566014,ECG,0.317613847325772
35,1717965566014,ECG,0.2043394669984907
29,1717965566015,ECG,0.7154412225523687
38,1717965566015,ECG,-0.21702262232207095
17,1717965566016,ECG,0.3152249276618777
8,1717965566016,ECG,-0.521857024686749
21,1717965566017,ECG,0.023526905536601188
14,1717965566018,ECG,0.09560266941479152
47,1717965566018,ECG,-0.21629866858823793
5,1717965566019,ECG,0.2509286266265457
9,1717965566019,ECG,-0.2899497843992226
50,1717965566019,ECG,-0.007139433845054224
34,1717965566020,ECG,0.27383648610889805
43,1717965566020,ECG,-0.23067175054607947
25,1717965566021,ECG,-0.09119622742075581
13,1717965566021,ECG,-0.30045321094510086
39,1717965566022,ECG,0.12202110198929293
49,1717965567002,ECG,-0.4898625335589715
7,1717965567002,ECG,0.7609571744178713
23,1717965567002,ECG,0.5427537380742457
27,1717965567002,ECG,-0.5948519333924199
32,1717965567003,ECG,0.34242945961257787
26,1717965567003,ECG,-0.5109915912618386
10,1717965567003,ECG,0.5464697299158715
19,1717965567003,ECG,0.412538735398745
46,1717965567003,ECG,0.7519742702372938
4,1717965567003,ECG,-0.506924186753722
20,1717965567003,ECG,-0.3130258965751066
3,1717965567003,ECG,0.02989181503337142
45,1717965567003,ECG,0.21776143423013555
15,1717965567003,ECG,-0.33946237913450406
28,1717965567003,ECG,-0.4880875390897538
42,1717965567004,ECG,0.5469708354909385
36,1717965567004,ECG,-0.06575244372803812
11,1717965567004,ECG,0.29043940201477314
22,1717965567004,ECG,0.6181932013512506
18,1717965567004,ECG,-0.3137722291037313
6,1717965567004,ECG,0.5955536987176027
37,1717965567004,ECG,-0.3123558969630631
44,1717965567007,ECG,-0.5742841206827338
41,1717965567007,ECG,-0.3460703468966946
30,1717965567007,ECG,0.5029404549922696
31,1717965567008,ECG,-0.1553099598096435
16,1717965567008,ECG,0.2234355273326219
1,1717965567008,ECG,0.4412580720653938
24,1717965567011,ECG,-0.515285915908267
48,1717965567011,ECG,-0.44632594694355554
33,1717965567011,ECG,-0.4473187542377276
2,1717965567011,ECG,-0.3277907327794244
40,1717965567011,ECG,0.16925913796604725
12,1717965567014,ECG,-0.2980287833445225
35,1717965567014,ECG,0.3376175565139573
29,1717965567015,ECG,-0.6053912609371691
38,1717965567015,ECG,0.5274537602433356
17,1717965567016,ECG,0.5493686513086384
8,1717965567016,ECG,-0.06005505020468389
21,1717965567017,ECG,0.2612704186372307
14,1717965567018,ECG,0.18948757635882166
47,1717965567018,ECG,0.25460079860548046
5,1717965567019,ECG,0.053963247035847484
9,1717965567019,ECG,-0.06583977429157413
50,1717965567019,ECG,0.2111730032955313
34,1717965567020,ECG,-0.2264507952708326
43,1717965567020,ECG,0.2137941032081817
25,1717965567021,ECG,0.2860514459681978
13,1717965567021,ECG,-0.5960082904614381
39,1717965567022,ECG,0.5715356610274059
49,1717965568001,ECG,-0.12344276956230917
26,1717965568001,ECG,-0.16180976426422572
45,1717965568001,ECG,0.2776504089431551
27,1717965568001,ECG,0.2706461509551777
32,1717965568001,ECG,0.0649433460066161
19,1717965568001,ECG,0.2484675375203348
10,1717965568001,ECG,-0.5338307209328866
46,1717965568001,ECG,-0.28107495885943273
4,1717965568002,ECG,0.05427434018472211
20,1717965568002,ECG,0.43439600680708534
23,1717965568001,ECG,-0.09455975567437705
7,1717965568001,ECG,-0.4938321958645903
15,1717965568002,ECG,-0.2023052518647872
28,1717965568002,ECG,-0.04331069134045517
42,1717965568002,ECG,-0.5476323770343475
37,1717965568002,ECG,0.03936793541874399
6,1717965568002,ECG,-0.5935251688136376
3,1717965568002,ECG,-0.014502547813819365
36,1717965568003,ECG,0.07183603670441152
11,1717965568003,ECG,0.17211955594158604
22,1717965568003,ECG,-0.1988239461997547
18,1717965568003,ECG,-0.2861851154390224
44,1717965568008,ECG,-0.2895718647746343
30,1717965568008,ECG,-0.12555865238544373
41,1717965568008,ECG,0.15774535843320886
16,1717965568008,ECG,0.40961651354343054
31,1717965568008,ECG,-0.2321752735260563
24,1717965568009,ECG,0.2698492928674352
48,1717965568009,ECG,-0.10639061593906247
1,1717965568008,ECG,-0.01983542693028994
33,1717965568009,ECG,-0.3358418220575313
2,1717965568010,ECG,-0.2976205134336911
40,1717965568010,ECG,0.07525327069815543
12,1717965568014,ECG,-0.5166193439004745
35,1717965568014,ECG,-0.12362103143276251
29,1717965568015,ECG,0.17118949541146986
38,1717965568015,ECG,0.19634636983173934
17,1717965568016,ECG,-0.16769334408922293
8,1717965568016,ECG,0.41765741366568837
21,1717965568017,ECG,0.010618736015387459
14,1717965568018,ECG,-0.35561240910321124
47,1717965568018,ECG,-0.1988793881238844
5,1717965568019,ECG,-0.5370028619185352
9,1717965568019,ECG,0.24193425530806809
50,1717965568019,ECG,0.27488291094534195
34,1717965568020,ECG,-0.5159241345173291
43,1717965568020,ECG,0.6004538645480104
25,1717965568021,ECG,-0.14987878564492071
13,1717965568021,ECG,0.28717170741516074
39,1717965568022,ECG,0.6388747255850257
49,1717965568998,ECG,-0.37745122738830617
7,1717965568999,ECG,-0.3181352321836908
23,1717965568999,ECG,0.4796461192370849
27,1717965568999,ECG,-0.48294488576649597
32,1717965568999,ECG,-0.007685330176031031
45,1717965569000,ECG,0.2635430270171366
26,1717965569000,ECG,0.02498995394920438
10,1717965569000,ECG,0.4346097970250907
19,1717965569000,ECG,0.20400192617233434
46,1717965569000,ECG,0.24696242525234915
4,1717965569001,ECG,-0.6193260235994121
20,1717965569001,ECG,0.6304236633667567
3,1717965569001,ECG,0.6630033821809054
15,1717965569001,ECG,0.11441808861656153
28,1717965569002,ECG,0.6127296528563684
42,1717965569002,ECG,-0.20365695148992055
37,1717965569002,ECG,0.37388184706783123
6,1717965569002,ECG,0.04477443455573004
36,1717965569003,ECG,-0.539676299809
11,1717965569003,ECG,-0.011505797386512955
22,1717965569003,ECG,0.5247584376020242
18,1717965569003,ECG,0.2014395631169553
44,1717965569008,ECG,0.18559381647349676
41,1717965569008,ECG,-0.07348768469242721
30,1717965569008,ECG,-0.29887075577006966
31,1717965569008,ECG,0.4579439661981901
16,1717965569008,ECG,-0.5540886949945149
1,1717965569008,ECG,-0.12975424955939924
24,1717965569008,ECG,0.012411568695779314
48,1717965569009,ECG,-0.4315536730484608
33,1717965569009,ECG,0.2170503702749619
2,1717965569010,ECG,-0.5499667502451606
40,1717965569010,ECG,0.3892716849363163
12,1717965569014,ECG,-0.44047842784433155
35,1717965569014,ECG,-0.530374295657816
29,1717965569015,ECG,0.5055423860049552
38,1717965569015,ECG,0.6615811252269729
17,1717965569016,ECG,0.1144482872109886
8,1717965569016,ECG,0.060835782623771685
21,1717965569017,ECG,-0.3405966989375909
14,1717965569018,ECG,-0.6144388859406879
47,1717965569018,ECG,0.6899543955967277
5,1717965569019,ECG,-0.3040848490610949
9,1717965569019,ECG,0.2256131534604573
50,1717965569019,ECG,0.19785763025105457
34,1717965569020,ECG,0.6975784125180534
43,1717965569020,ECG,0.07230073012800718
25,1717965569021,ECG,-0.43147675767081717
13,1717965569021,ECG,-0.49577621723739357
39,1717965569022,ECG,0.1154428185321636
49,1717965570002,ECG,-0.03901779729795182
7,1717965570002,ECG,0.18662933549530977
45,1717965570003,ECG,0.2729246738671685
26,1717965570003,ECG,-0.4893253654326182
23,1717965570002,ECG,-0.17747040429880961
10,1717965570003,ECG,0.03631975723152775
46,1717965570003,ECG,-0.40489858478898194
19,1717965570003,ECG,0.46806163961623337
4,1717965570003,ECG,0.5239830847626975
27,1717965570002,ECG,0.49645310935815407
32,1717965570003,ECG,-0.28012650894238683
20,1717965570003,ECG,-0.034237662563763316
3,1717965570003,ECG,-0.5200345621706811
15,1717965570003,ECG,-0.0590140089042918
28,1717965570003,ECG,-0.20609922399381353
42,1717965570003,ECG,0.2569817012613469
36,1717965570004,ECG,-0.4936677382171579
11,1717965570004,ECG,-0.2954253803000743
18,1717965570004,ECG,-0.6143903414284911
22,1717965570004,ECG,0.5215439268568369
6,1717965570004,ECG,-0.0788667791527658
37,1717965570003,ECG,-0.2972475159372333
44,1717965570008,ECG,-0.06237873904222091
30,1717965570008,ECG,0.5303870692161036
41,1717965570008,ECG,0.20504891419597818
16,1717965570008,ECG,0.06757098298444925
31,1717965570008,ECG,-0.08262841804650119
1,1717965570008,ECG,-0.43692927384642444
24,1717965570008,ECG,-0.21733305489984026
48,1717965570009,ECG,0.06393296434645337
33,1717965570009,ECG,0.7222478031551005
2,1717965570010,ECG,-0.3787473739902267
40,1717965570010,ECG,-0.1298717463403074
12,1717965570014,ECG,-0.4257941260890344
35,1717965570014,ECG,0.06438318317954284
29,1717965570015,ECG,0.6496052688491618
38,1717965570015,ECG,-0.5082385748592119
17,1717965570016,ECG,-0.4871426165106859
8,1717965570016,ECG,-0.4907007943783117
21,1717965570017,ECG,-0.09763490830473864
14,1717965570018,ECG,0.4946559198734415
47,1717965570018,ECG,-0.3667629569765955
5,1717965570019,ECG,-0.06646746103846601
9,1717965570019,ECG,0.6130812338640079
50,1717965570019,ECG,-0.3211990609530198
34,1717965570020,ECG,0.7051788882263298
43,1717965570020,ECG,0.22161071490934367
25,1717965570021,ECG,-0.24090426532714526
13,1717965570021,ECG,-0.2663463861679546
39,1717965570022,ECG,-0.5333059667594144
49,1717965571002,ECG,-0.5364093900147268
7,1717965571002,ECG,0.26726811299930414
23,1717965571002,ECG,-0.016817510923604118
27,1717965571003,ECG,0.18145088614076849
10,1717965571003,ECG,-0.1489626544943719
32,1717965571003,ECG,0.2979372987943175
46,1717965571003,ECG,-0.570542530815775
26,1717965571003,ECG,-0.18965497941169873
19,1717965571003,ECG,-0.2600028449839426
20,1717965571003,ECG,0.4469780972356672
15,1717965571004,ECG,-0.5974683737111056
4,1717965571003,ECG,0.5186848546119125
45,1717965571003,ECG,-0.204108885415827
28,1717965571004,ECG,-0.319674360099356
37,1717965571004,ECG,-0.20282385430977962
6,1717965571004,ECG,0.2432468845591534
36,1717965571004,ECG,0.6800162360554206
42,1717965571004,ECG,-0.2512353826085454
11,1717965571004,ECG,-0.5331499405666635
3,1717965571004,ECG,-0.16245369284730035
22,1717965571004,ECG,0.2081256760655002
18,1717965571004,ECG,-0.28539898022085547
44,1717965571007,ECG,0.2923085848388482
30,1717965571008,ECG,-0.47273752843160965
41,1717965571008,ECG,-0.03441641867428806
31,1717965571008,ECG,0.0053503968558977905
16,1717965571008,ECG,0.16073093154615814
1,1717965571008,ECG,0.14229414645770955
24,1717965571008,ECG,0.2671590367242146
48,1717965571009,ECG,-0.5474586711392668
33,1717965571009,ECG,0.05352827100344084
2,1717965571010,ECG,-0.46463280007511304
40,1717965571010,ECG,-0.5285656007848042
12,1717965571014,ECG,0.5808251993752016
35,1717965571014,ECG,0.2880893088872575
29,1717965571015,ECG,0.7315071333766489
38,1717965571015,ECG,-0.3037447980888549
17,1717965571016,ECG,0.08009402015708951
8,1717965571016,ECG,0.422190328888799
21,1717965571017,ECG,-0.22688669597959388
14,1717965571018,ECG,0.07537766014413325
47,1717965571018,ECG,-0.3492583250350409
5,1717965571019,ECG,0.0981857563407552
9,1717965571019,ECG,0.03949564494996964
50,1717965571019,ECG,-0.3077315250509403
34,1717965571020,ECG,0.02391817152910468
43,1717965571020,ECG,-0.1348381700575869
25,1717965571021,ECG,-0.050538073604848945
13,1717965571021,ECG,-0.2903560508473407
39,1717965571022,ECG,0.34816909882705743
7,1717965572000,ECG,-0.30471797424136016
49,1717965572000,ECG,0.46943092211003284
23,1717965572000,ECG,0.03254833867164008
27,1717965572000,ECG,-0.08954757913017454
10,1717965572001,ECG,-0.5973155110505936
26,1717965572001,ECG,0.1261335302252765
19,1717965572001,ECG,0.5099871026724705
46,1717965572001,ECG,0.33762678574973876
4,1717965572001,ECG,0.5238817768026609
32,1717965572000,ECG,-0.029314065360982515
3,1717965572001,ECG,-0.5473034378456534
45,1717965572001,ECG,0.15929026315211875
20,1717965572001,ECG,0.38410836883072375
15,1717965572001,ECG,-0.08394116537317371
28,1717965572002,ECG,-0.55923455797876
42,1717965572002,ECG,0.7045214289577236
37,1717965572002,ECG,-0.14729229827095341
6,1717965572002,ECG,0.08599729542320488
36,1717965572003,ECG,-0.08159272179300382
11,1717965572003,ECG,0.4395327047381354
22,1717965572003,ECG,0.050114971748748585
18,1717965572003,ECG,-0.06870952070725302
44,1717965572008,ECG,0.47113287440675045
30,1717965572008,ECG,0.6604559421268628
41,1717965572008,ECG,-0.36950594651941326
16,1717965572008,ECG,-0.3115369745415828
31,1717965572008,ECG,0.01622169599636976
1,1717965572008,ECG,-0.003091077806630643
24,1717965572008,ECG,-0.40790055758704985
48,1717965572009,ECG,-0.5356756510215069
33,1717965572009,ECG,-0.4396308037441307
2,1717965572010,ECG,-0.05260382586573562
40,1717965572010,ECG,0.2267939067042073
12,1717965572014,ECG,0.3621456609586389
35,1717965572014,ECG,-0.6094968481006235
29,1717965572015,ECG,0.7209507278031609
38,1717965572015,ECG,0.6824134339800353
17,1717965572016,ECG,-0.3571337147229211
8,1717965572016,ECG,-0.40926417786400726
21,1717965572017,ECG,0.16525435410280678
14,1717965572018,ECG,0.12971700697534094
47,1717965572018,ECG,-0.2917332196270802
5,1717965572019,ECG,-0.23507030817131855
9,1717965572019,ECG,-0.349034880182806
50,1717965572019,ECG,-0.3598120834086098
34,1717965572020,ECG,-0.026337249401288065
43,1717965572020,ECG,-0.13077046066665005
25,1717965572021,ECG,-0.27051212405123665
13,1717965572021,ECG,0.5011877270014765
39,1717965572022,ECG,-0.19889677581110907
49,1717965572999,ECG,0.07818660972364559
7,1717965572999,ECG,-0.2959088080272099
27,1717965572999,ECG,0.12908861298966673
23,1717965572999,ECG,-0.0838030848560844
32,1717965572999,ECG,-0.5547041090252193
45,1717965573000,ECG,-0.5177776244968584
26,1717965573000,ECG,0.30430848856492965
10,1717965573000,ECG,0.13292651727332302
19,1717965573000,ECG,-0.4620425613444957
46,1717965573000,ECG,0.5129516942922451
4,1717965573001,ECG,-0.5067620022475587
20,1717965573001,ECG,0.04658644919727224
3,1717965573001,ECG,-0.3663510030651476
15,1717965573001,ECG,-0.32496300985538495
28,1717965573002,ECG,0.06652598101091892
42,1717965573002,ECG,0.1583672513517759
37,1717965573002,ECG,-0.29998006925935555
6,1717965573002,ECG,-0.2327785578527013
36,1717965573003,ECG,0.5329670250007735
11,1717965573003,ECG,-0.007887587024001608
22,1717965573003,ECG,0.227078240428555
18,1717965573003,ECG,-0.019939072687925524
44,1717965573008,ECG,-0.10551886317937686
30,1717965573008,ECG,-0.280802500548798
31,1717965573008,ECG,-0.5410056234479074
41,1717965573008,ECG,-0.3165575902349206
16,1717965573008,ECG,-0.4635200422385878
1,1717965573008,ECG,0.14361921012151307
24,1717965573008,ECG,0.6846072577788583
48,1717965573009,ECG,0.10043720914245353
33,1717965573009,ECG,-0.3150681006370508
2,1717965573010,ECG,-0.1045246374368661
40,1717965573010,ECG,-0.008201448358838098
12,1717965573014,ECG,-0.5867277435781316
35,1717965573014,ECG,-0.2713099956249895
29,1717965573015,ECG,0.16275419175594064
38,1717965573015,ECG,-0.13299835791476933
17,1717965573016,ECG,-0.3278699355511152
8,1717965573016,ECG,-0.5045470379660291
21,1717965573017,ECG,-0.5879459099611474
14,1717965573018,ECG,-0.18938463144560055
47,1717965573018,ECG,0.5086393124649536
5,1717965573019,ECG,-0.49341228643609114
9,1717965573019,ECG,-0.1015194716885803
50,1717965573019,ECG,-0.30306347180707066
34,1717965573020,ECG,0.25880040097846235
43,1717965573020,ECG,0.6697817174317586
25,1717965573021,ECG,-0.1275388917789707
13,1717965573021,ECG,0.17885775962474135
39,1717965573022,ECG,0.44928023583407467
49,1717965574002,ECG,-0.009464815540370302
7,1717965574002,ECG,0.45544586594432057
27,1717965574002,ECG,-0.30019283577419625
32,1717965574003,ECG,0.5412319845349797
45,1717965574003,ECG,0.269061949367269
23,1717965574002,ECG,-0.5024050583530144
26,1717965574003,ECG,0.09098787823671427
10,1717965574003,ECG,0.461987715778828
19,1717965574003,ECG,-0.23575924665328754
4,1717965574003,ECG,0.5186077512805876
3,1717965574003,ECG,-0.3504211240103538
15,1717965574003,ECG,0.29435577863235657
28,1717965574003,ECG,-0.3264965642115334
20,1717965574003,ECG,0.7350115006055086
42,1717965574003,ECG,0.7144858751020358
37,1717965574003,ECG,-0.4689025449728311
6,1717965574004,ECG,-0.2668616589130445
46,1717965574003,ECG,0.6187814450903517
36,1717965574004,ECG,0.1122469632336903
11,1717965574004,ECG,-0.4919451860995104
22,1717965574004,ECG,0.358971103376586
18,1717965574004,ECG,-0.22778277445167516
44,1717965574008,ECG,-0.5926141163379868
30,1717965574008,ECG,0.5784493837315515
41,1717965574008,ECG,0.2104634415485985
31,1717965574008,ECG,0.508057879463545
1,1717965574008,ECG,-0.3974735914228786
16,1717965574008,ECG,0.13262432899976342
24,1717965574008,ECG,0.3654397204559017
48,1717965574009,ECG,0.10899756961072468
33,1717965574009,ECG,0.33353345753548264
2,1717965574010,ECG,-0.18385908909556473
40,1717965574010,ECG,-0.5937004491507304
12,1717965574014,ECG,0.08349466438030498
35,1717965574014,ECG,0.33329397769862323
29,1717965574015,ECG,0.6994769953549836
38,1717965574015,ECG,0.7160208073793999
17,1717965574016,ECG,-0.14836208171326465
8,1717965574016,ECG,0.23959563346564702
21,1717965574017,ECG,-0.03969652058434764
14,1717965574018,ECG,0.20413416840568732
47,1717965574018,ECG,0.048755530585450714
5,1717965574019,ECG,0.26904959353163593
9,1717965574019,ECG,-0.5601680478573728
50,1717965574019,ECG,-0.4933554534402306
34,1717965574020,ECG,-0.43897095848913575
43,1717965574020,ECG,0.15828189913004903
25,1717965574021,ECG,-0.24717124913675614
13,1717965574021,ECG,-0.4742759236680585
39,1717965574022,ECG,-0.3290275017836475
49,1717965575002,ECG,0.2843005567574354
7,1717965575002,ECG,-0.06322360960674239
23,1717965575002,ECG,-0.26979989514406505
32,1717965575003,ECG,0.2861293716686472
27,1717965575003,ECG,-0.2851075340183506
45,1717965575003,ECG,0.2471360161098796
26,1717965575003,ECG,-0.46323345133046817
10,1717965575003,ECG,0.04418433976340465
19,1717965575003,ECG,0.228681038755592
46,1717965575003,ECG,-0.004186763847216224
4,1717965575003,ECG,0.24743819489627206
20,1717965575003,ECG,-0.19367918209453672
3,1717965575003,ECG,0.17231126115255543
15,1717965575003,ECG,-0.27335332603018386
28,1717965575004,ECG,-0.07315535325680124
36,1717965575004,ECG,0.5218596435662063
11,1717965575004,ECG,-0.10314743463442479
22,1717965575004,ECG,0.14250094729357798
18,1717965575004,ECG,-0.048602276168475386
42,1717965575004,ECG,0.7254534413420982
37,1717965575004,ECG,0.30515898060356234
6,1717965575004,ECG,-0.042402627782467416
44,1717965575007,ECG,0.03156323715583174
30,1717965575007,ECG,-0.4290952844739363
41,1717965575007,ECG,-0.5016538937706837
31,1717965575008,ECG,0.5239511832306214
16,1717965575008,ECG,-0.5731376728324074
1,1717965575008,ECG,-0.21755830345097713
24,1717965575008,ECG,0.250974415010347
48,1717965575009,ECG,-0.5382906722981485
33,1717965575009,ECG,0.19022906940002135
2,1717965575010,ECG,0.08186570230275604
40,1717965575010,ECG,-0.037371829511478334
12,1717965575014,ECG,-0.07673403022375927
35,1717965575014,ECG,-0.07183612969547773
29,1717965575015,ECG,0.021652165695333656
38,1717965575015,ECG,-0.21147202059887454
17,1717965575016,ECG,0.2417960371149495
8,1717965575016,ECG,0.2866988440837922
21,1717965575017,ECG,0.16711512487272234
14,1717965575018,ECG,0.5582927679165275
47,1717965575018,ECG,0.262039397944388
5,1717965575019,ECG,0.5073627251520945
9,1717965575019,ECG,-0.17004369890446747
50,1717965575019,ECG,-0.05196271287215096
34,1717965575020,ECG,-0.3480525767558162
43,1717965575020,ECG,-0.05978593577890402
25,1717965575021,ECG,0.5164181610233711
13,1717965575021,ECG,-0.5915219409264206
39,1717965575022,ECG,-0.4416787318328047
7,1717965576002,ECG,0.31602030597033537
49,1717965576002,ECG,-0.3191966468961201
23,1717965576002,ECG,-0.36947951011018365
32,1717965576003,ECG,0.13347036568482168
27,1717965576002,ECG,0.19854186801410192
45,1717965576003,ECG,-0.5176622097337562
26,1717965576003,ECG,-0.3244061061671262
10,1717965576003,ECG,-0.1685903650701222
3,1717965576003,ECG,-0.2229601256209465
15,1717965576003,ECG,-0.3447288966860112
28,1717965576003,ECG,-0.5009873356057432
19,1717965576003,ECG,-0.07991986189102188
37,1717965576004,ECG,-0.20306851787951613
6,1717965576004,ECG,-0.2635645294290965
46,1717965576003,ECG,-0.051333679807641634
36,1717965576004,ECG,-0.43808508327207024
11,1717965576004,ECG,0.5173533501788142
22,1717965576004,ECG,-0.30900090009078035
18,1717965576004,ECG,-0.30692733100634795
4,1717965576003,ECG,-0.20987579396893508
42,1717965576004,ECG,0.08205659938673028
20,1717965576003,ECG,-0.2868963721111024
44,1717965576008,ECG,0.2418548763588664
30,1717965576008,ECG,-0.11799219208232381
41,1717965576008,ECG,0.2933202863395747
31,1717965576008,ECG,-0.5290423369072226
16,1717965576008,ECG,-0.322883150400199
1,1717965576008,ECG,-0.27677424561445935
24,1717965576008,ECG,-0.6025332497759556
48,1717965576009,ECG,-0.4470402284760988
33,1717965576009,ECG,0.5012648382652245
2,1717965576010,ECG,0.24066515526077387
40,1717965576010,ECG,0.0068384937631766896
12,1717965576014,ECG,-0.6156198399994286
35,1717965576014,ECG,-0.4470347169774893
29,1717965576015,ECG,0.2701366521466127
38,1717965576015,ECG,-0.5006421881827922
17,1717965576016,ECG,0.07381038685436639
8,1717965576016,ECG,0.15768965405401175
21,1717965576017,ECG,0.09336991400657046
14,1717965576018,ECG,-0.08503786400946138
47,1717965576018,ECG,0.4842919675598061
5,1717965576019,ECG,0.3975334502120136
9,1717965576019,ECG,0.4832226805337076
50,1717965576019,ECG,-0.12378483880473909
34,1717965576020,ECG,-0.136682602478705
43,1717965576020,ECG,0.7866293792557763
25,1717965576021,ECG,0.07733838965735768
13,1717965576021,ECG,0.20027573629766945
39,1717965576022,ECG,-0.0017390697602760463
49,1717965577002,ECG,0.2835952761230165
7,1717965577002,ECG,-0.21580257583202694
23,1717965577002,ECG,-0.20750194966429886
27,1717965577002,ECG,-0.49980758879777587
45,1717965577003,ECG,0.2490303605190411
26,1717965577003,ECG,0.47856897480636573
10,1717965577003,ECG,-0.010180954832545119
19,1717965577003,ECG,-0.09858914808139044
46,1717965577003,ECG,0.5184325748786508
20,1717965577003,ECG,-0.5093743972680909
32,1717965577003,ECG,-0.43481344419792384
28,1717965577003,ECG,0.4979677178787598
3,1717965577003,ECG,-0.5931593616435142
42,1717965577003,ECG,0.5450316930587756
37,1717965577004,ECG,-0.2081753685092302
6,1717965577004,ECG,-0.33813516264223076
36,1717965577004,ECG,-0.43405717966995133
11,1717965577004,ECG,0.4773008483740481
22,1717965577004,ECG,-0.29609828166989755
15,1717965577003,ECG,-0.09291005949350623
18,1717965577004,ECG,0.4910458300049345
4,1717965577003,ECG,0.1764595079816577
44,1717965577008,ECG,0.5203900571411113
30,1717965577008,ECG,0.4262725905988328
41,1717965577008,ECG,-0.2355119983471439
31,1717965577008,ECG,-0.4693460037670846
16,1717965577008,ECG,0.25581335090415025
1,1717965577008,ECG,-0.5032425828115648
24,1717965577008,ECG,0.636448660446523
48,1717965577009,ECG,-0.09397109712091532
33,1717965577009,ECG,0.1507476088455637
2,1717965577010,ECG,0.4314573181523591
40,1717965577010,ECG,0.14571087960791398
12,1717965577014,ECG,0.2983694395996496
35,1717965577014,ECG,0.7423480796025761
29,1717965577015,ECG,0.2808927736692088
38,1717965577015,ECG,0.48721829220602986
17,1717965577016,ECG,0.35252379071952167
8,1717965577016,ECG,0.23524879126363174
21,1717965577017,ECG,-0.34459963365893925
14,1717965577018,ECG,0.04124401283763624
47,1717965577018,ECG,-0.3475015094935617
5,1717965577019,ECG,0.23865930335298832
9,1717965577019,ECG,0.06938611306813
50,1717965577019,ECG,-0.4800552939469365
34,1717965577020,ECG,0.21164180903095403
43,1717965577020,ECG,0.7288723635368506
25,1717965577021,ECG,-0.47130241398065303
13,1717965577021,ECG,-0.3515761948100758
39,1717965577022,ECG,-0.4311735276288185
49,1717965578002,ECG,-0.3556501252930487
7,1717965578002,ECG,-0.5577427279258046
26,1717965578003,ECG,-0.28926856391694744
23,1717965578002,ECG,-0.06443828671103946
45,1717965578002,ECG,0.44385613226858456
19,1717965578003,ECG,0.2928302637967642
46,1717965578003,ECG,-0.22786266628335472
4,1717965578003,ECG,-0.3445135384255035
20,1717965578003,ECG,0.247047197328733
27,1717965578002,ECG,-0.0953086728079922
3,1717965578003,ECG,-0.3845927278948499
15,1717965578003,ECG,-0.058605215120921025
28,1717965578003,ECG,-0.05896963067235198
42,1717965578003,ECG,0.1537926021864947
32,1717965578002,ECG,0.22721616633639427
37,1717965578003,ECG,-0.009080866511513463
36,1717965578003,ECG,0.003922718983080192
6,1717965578003,ECG,-0.3422037083584349
11,1717965578003,ECG,-0.035061450174272396
22,1717965578004,ECG,-0.38696364311961584
18,1717965578004,ECG,0.17658928406924437
10,1717965578003,ECG,0.7480753479792794
44,1717965578008,ECG,0.4829786511325734
30,1717965578008,ECG,0.5819733328948359
41,1717965578008,ECG,-0.23014024332486033
16,1717965578008,ECG,-0.3287220800609632
31,1717965578008,ECG,0.2787725684901878
1,1717965578008,ECG,0.22104210178194467
24,1717965578008,ECG,-0.4418886235759877
48,1717965578009,ECG,0.537032132760813
33,1717965578009,ECG,-0.0549495199293547
2,1717965578010,ECG,-0.2514988368163548
40,1717965578010,ECG,-0.3184588343069159
12,1717965578014,ECG,0.052124042823270225
35,1717965578014,ECG,-0.15345899269080027
29,1717965578015,ECG,0.4991353999960049
38,1717965578015,ECG,0.4729868477398476
17,1717965578016,ECG,0.3676368278134631
8,1717965578016,ECG,0.12368224379147194
21,1717965578017,ECG,0.7052183227797979
14,1717965578018,ECG,-0.225437785849327
47,1717965578018,ECG,0.2792060259118261
5,1717965578019,ECG,-0.3240534724493839
9,1717965578019,ECG,-0.5748432370110156
50,1717965578019,ECG,-0.23970186541950067
34,1717965578020,ECG,-0.17531763739920025
43,1717965578020,ECG,-0.041500918238356534
25,1717965578021,ECG,-0.12582637600478147
13,1717965578021,ECG,0.7597566618718383
39,1717965578022,ECG,0.2096178721486624
49,1717965579002,ECG,0.7355187044360509
7,1717965579002,ECG,-0.18213367007833584
32,1717965579002,ECG,0.2918479443978126
27,1717965579002,ECG,-0.4563943046423142
45,1717965579003,ECG,-0.10288811880042048
26,1717965579003,ECG,0.6137540151976447
10,1717965579003,ECG,0.31930194432628556
19,1717965579003,ECG,-0.2479027259573551
46,1717965579003,ECG,-0.31885501288577894
4,1717965579003,ECG,-0.5135660624121517
20,1717965579003,ECG,-0.5926382905456575
23,1717965579002,ECG,-0.5378206166492179
3,1717965579003,ECG,-0.34720537331599194
15,1717965579003,ECG,-0.17892402648937242
28,1717965579003,ECG,0.020878090460151634
42,1717965579003,ECG,0.2127027761545534
37,1717965579006,ECG,-0.476223448588914
6,1717965579006,ECG,0.043450997688996365
36,1717965579006,ECG,-0.3416936858029843
11,1717965579006,ECG,0.2751663048159484
22,1717965579006,ECG,-0.09813068827773275
18,1717965579006,ECG,0.27989460048608494
44,1717965579007,ECG,0.072073879242875
30,1717965579007,ECG,-0.2996515766872494
41,1717965579007,ECG,0.25822667935822236
31,1717965579008,ECG,0.18925845662064072
16,1717965579008,ECG,0.7284293830418279
1,1717965579008,ECG,0.496783918376689
24,1717965579008,ECG,-0.029828274002469433
48,1717965579009,ECG,-0.029225796772142147
33,1717965579009,ECG,-0.10461830876622613
2,1717965579010,ECG,-0.20246581831183066
40,1717965579011,ECG,-0.36234967671343365
12,1717965579014,ECG,-0.24803226668906883
35,1717965579014,ECG,0.10019072564690457
29,1717965579015,ECG,0.3095013615338933
38,1717965579015,ECG,0.3550194011081101
17,1717965579016,ECG,0.6472470137917224
8,1717965579016,ECG,0.08448773612258201
21,1717965579017,ECG,0.01970351314301269
14,1717965579018,ECG,-0.5013303220580287
47,1717965579018,ECG,-0.23292528375170293
5,1717965579019,ECG,0.25428511260595665
9,1717965579019,ECG,-0.48099656050356443
50,1717965579019,ECG,-0.22824123765263743
34,1717965579020,ECG,0.3901373970852356
43,1717965579020,ECG,-0.12336360830740217
25,1717965579021,ECG,0.16057066317021357
13,1717965579021,ECG,-0.5934064854456413
39,1717965579022,ECG,0.3437199768814854
49,1717965580002,ECG,0.29255791380763213
7,1717965580002,ECG,0.39737136498125125
23,1717965580002,ECG,0.49668464653508837
19,1717965580003,ECG,0.25342787103587944
46,1717965580003,ECG,0.7038189907333359
32,1717965580003,ECG,0.2776277940640935
27,1717965580003,ECG,-0.08498447747081718
45,1717965580003,ECG,0.2939076306050422
26,1717965580003,ECG,0.038128036068298565
10,1717965580003,ECG,-0.2682107124274833
4,1717965580003,ECG,-0.3225019744707656
37,1717965580003,ECG,-0.28301670989726185
6,1717965580003,ECG,0.18454817780586133
36,1717965580003,ECG,-0.3856308495502673
11,1717965580004,ECG,0.2818564249749399
22,1717965580004,ECG,-0.27280484049462617
18,1717965580004,ECG,-0.5282900450888609
20,1717965580003,ECG,-0.402457390213899
28,1717965580003,ECG,0.06511513469863986
42,1717965580003,ECG,-0.2961600530167331
3,1717965580003,ECG,0.4954106872372671
15,1717965580003,ECG,-0.5443672413814217
44,1717965580008,ECG,-0.2593189644218292
30,1717965580008,ECG,-0.4037976678447842
41,1717965580008,ECG,0.5318453776434988
31,1717965580008,ECG,0.7027207101024324
16,1717965580008,ECG,0.2736519161623556
1,1717965580008,ECG,-0.27438984361398494
24,1717965580008,ECG,-0.14322188749241443
48,1717965580009,ECG,0.24706413938490585
33,1717965580009,ECG,-0.01622943169523881
2,1717965580010,ECG,-0.2362044776713364
40,1717965580010,ECG,-0.38975786385437583
12,1717965580014,ECG,0.10784635118046254
35,1717965580014,ECG,-0.025162150265290048
29,1717965580015,ECG,0.05465806358412734
38,1717965580015,ECG,0.28569082110745525
17,1717965580016,ECG,0.7081664416198161
8,1717965580016,ECG,-0.3409847363127687
21,1717965580017,ECG,-0.0767646751119216
14,1717965580018,ECG,0.2511911631465774
47,1717965580018,ECG,-0.0918241918101452
5,1717965580019,ECG,-0.03136034078318162
9,1717965580019,ECG,-0.12259735455643592
50,1717965580019,ECG,0.5205396626966383
34,1717965580020,ECG,0.26773134101766327
43,1717965580020,ECG,-0.4708670883932819
25,1717965580021,ECG,0.25567454194469147
13,1717965580021,ECG,-0.044991810053463616
39,1717965580022,ECG,-0.46948074972694376
49,1717965581001,ECG,-0.5707527586872231
7,1717965581001,ECG,-0.3274032798790058
23,1717965581001,ECG,0.09967254224477332
27,1717965581001,ECG,0.49967916691320985
32,1717965581001,ECG,-0.2743130167335626
45,1717965581001,ECG,-0.18723566635925276
26,1717965581002,ECG,-0.397744781931587
10,1717965581002,ECG,0.12691629072879904
46,1717965581002,ECG,-0.3162428742246404
19,1717965581002,ECG,-0.1962395810972501
3,1717965581002,ECG,0.3604590226781857
37,1717965581002,ECG,0.36654644306287554
4,1717965581002,ECG,0.27166291304361034
6,1717965581003,ECG,-0.036341767468344284
36,1717965581003,ECG,-0.13020804018716053
15,1717965581002,ECG,-0.5433896502720902
28,1717965581002,ECG,0.5048183232572298
20,1717965581002,ECG,-0.1056542576662051
42,1717965581002,ECG,-0.39280038820194896
11,1717965581003,ECG,0.008606597843359931
18,1717965581003,ECG,-0.25518434244199495
22,1717965581003,ECG,-0.30252222427992004
44,1717965581008,ECG,-0.30003217553985567
30,1717965581008,ECG,-0.30367272023437547
31,1717965581008,ECG,-0.25046890014348044
41,1717965581008,ECG,0.22726810044745102
16,1717965581008,ECG,0.4799214926785707
1,1717965581008,ECG,0.2517189371820994
24,1717965581008,ECG,-0.31051863017359727
48,1717965581009,ECG,0.3990525603664065
33,1717965581009,ECG,0.07210104378379775
2,1717965581010,ECG,-0.1625430423069305
40,1717965581010,ECG,-0.6141482786047169
12,1717965581014,ECG,-0.014270087468120637
35,1717965581014,ECG,-0.18578862385159875
29,1717965581015,ECG,0.6845885645461778
38,1717965581015,ECG,0.6080319945408277
17,1717965581016,ECG,0.13974996007977936
8,1717965581016,ECG,-0.021056463560481603
21,1717965581017,ECG,0.24623226179410002
14,1717965581018,ECG,-0.590225511369112
47,1717965581018,ECG,0.27021306039049475
5,1717965581019,ECG,0.3394624612059151
9,1717965581019,ECG,0.12963944103749614
50,1717965581019,ECG,-0.33875734267045676
34,1717965581020,ECG,0.2541232366027668
43,1717965581020,ECG,-0.008860241130881248
25,1717965581021,ECG,-0.4005580838722392
13,1717965581021,ECG,0.12249896133562553
39,1717965581022,ECG,-0.5210018612035091
49,1717965582002,ECG,0.3472590630597852
7,1717965582002,ECG,0.2952061477705912
23,1717965582002,ECG,0.14603117438105895
27,1717965582003,ECG,-0.3990395091619524
32,1717965582003,ECG,-0.25449249430163257
26,1717965582003,ECG,0.3290397584519774
45,1717965582003,ECG,-0.3351800762108333
46,1717965582003,ECG,-0.5293174196005145
19,1717965582003,ECG,0.4793281121262781
10,1717965582003,ECG,-0.4563510899726595
3,1717965582003,ECG,-0.06828978032730113
15,1717965582003,ECG,0.3691281231447835
20,1717965582003,ECG,0.024911981628380216
42,1717965582003,ECG,-0.32775466209603454
28,1717965582003,ECG,-0.3835424965550365
6,1717965582004,ECG,-0.1292292593787729
4,1717965582003,ECG,0.265846225714659
22,1717965582004,ECG,-0.13592472684696136
11,1717965582004,ECG,0.24779725492397314
18,1717965582004,ECG,-0.346252611596124
37,1717965582003,ECG,-0.40321592379101523
36,1717965582004,ECG,-0.34273278949753816
44,1717965582007,ECG,0.03159875689071391
30,1717965582008,ECG,0.7456477555655121
41,1717965582008,ECG,-0.3348846534790769
31,1717965582008,ECG,0.2689649370334256
16,1717965582008,ECG,0.5009776863065576
1,1717965582008,ECG,0.010555717450495078
24,1717965582009,ECG,0.11164309771749135
48,1717965582009,ECG,0.12712047797816228
33,1717965582009,ECG,-0.23537344529791232
2,1717965582010,ECG,0.5342289293114479
40,1717965582010,ECG,0.4667233342620436
12,1717965582014,ECG,-0.0691545900258278
35,1717965582015,ECG,0.22233127534247038
29,1717965582015,ECG,-0.10442236910510039
38,1717965582015,ECG,-0.19746253766516725
17,1717965582016,ECG,-0.5947442142715886
8,1717965582016,ECG,-0.29997592776412557
21,1717965582017,ECG,-0.2959463760133696
14,1717965582018,ECG,-0.32850418557264216
47,1717965582018,ECG,0.44746975756744783
5,1717965582019,ECG,0.10959432575898853
9,1717965582019,ECG,0.2667893354595246
50,1717965582019,ECG,-0.49756297692725726
34,1717965582020,ECG,0.35391813276208733
43,1717965582020,ECG,0.39073612425284465
25,1717965582021,ECG,-0.3592916447234036
13,1717965582021,ECG,0.44545388119235657
39,1717965582022,ECG,-0.59399033922757
49,1717965583002,ECG,-0.22313648304541567
23,1717965583002,ECG,-0.24195834412432352
27,1717965583003,ECG,0.7601306070350248
7,1717965583002,ECG,0.5586803621064714
32,1717965583003,ECG,-0.02120317985923921
45,1717965583003,ECG,0.00493767418178685
26,1717965583003,ECG,0.20140874240876072
10,1717965583003,ECG,-0.11448408947857885
19,1717965583003,ECG,-0.5033552272238025
46,1717965583003,ECG,-0.5166933498875861
4,1717965583003,ECG,0.7455628675548787
3,1717965583004,ECG,-0.33696253038291574
15,1717965583004,ECG,-0.3201145103414694
20,1717965583003,ECG,-0.44272297846703923
6,1717965583004,ECG,-0.11810972985059756
28,1717965583004,ECG,-0.48997363055221244
36,1717965583004,ECG,-0.46270380706787323
11,1717965583004,ECG,0.4524407402983509
22,1717965583004,ECG,0.5561046648310113
42,1717965583004,ECG,0.2809114883574323
18,1717965583005,ECG,-0.23019475676622436
37,1717965583004,ECG,0.160974099865421
44,1717965583007,ECG,-0.5157701193615418
30,1717965583008,ECG,0.29806086446791424
41,1717965583008,ECG,-0.34369278128153996
31,1717965583008,ECG,-0.4320623263690058
16,1717965583008,ECG,0.19712926402205397
1,1717965583008,ECG,0.06768067477259096
24,1717965583008,ECG,0.4285068555365573
48,1717965583009,ECG,-0.5572664332667523
33,1717965583009,ECG,0.3132632050607369
2,1717965583010,ECG,0.01510621307250711
40,1717965583010,ECG,-0.16400761424857693
12,1717965583014,ECG,0.07336402440310351
35,1717965583014,ECG,-0.2594357371541131
29,1717965583015,ECG,0.2589054380501104
38,1717965583015,ECG,0.5331463464502092
17,1717965583016,ECG,0.20534702817852163
8,1717965583016,ECG,0.06258388867748675
21,1717965583017,ECG,-0.20897129768596798
14,1717965583018,ECG,0.06438276366966872
47,1717965583018,ECG,-0.29882773195712925
5,1717965583019,ECG,0.5173742521052831
9,1717965583019,ECG,0.340744740599394
50,1717965583019,ECG,-0.5071249027360569
34,1717965583020,ECG,0.05976199190842736
43,1717965583020,ECG,0.17441207317233212
25,1717965583021,ECG,-0.2068380187186609
13,1717965583021,ECG,0.18210300987786826
39,1717965583022,ECG,0.7922874003903358
49,1717965583998,ECG,0.07901537424444377
7,1717965584000,ECG,-0.39322492522456476
23,1717965584000,ECG,-0.008633561401714968
27,1717965584001,ECG,-0.5281516400651918
32,1717965584001,ECG,-0.5465684903763526
45,1717965584001,ECG,-0.07748231714861352
26,1717965584002,ECG,-0.19023980236262544
10,1717965584003,ECG,-0.5407434323272226
19,1717965584003,ECG,-0.4258218326746345
46,1717965584003,ECG,0.019646382222932024
4,1717965584003,ECG,-0.45123193851442117
20,1717965584006,ECG,0.2930976567923893
3,1717965584006,ECG,0.12688285459554688
15,1717965584007,ECG,0.12363029648874095
28,1717965584007,ECG,-0.529789768746907
42,1717965584008,ECG,-0.326249831552415
37,1717965584008,ECG,-0.34354074953780317
6,1717965584008,ECG,0.7524254209951767
36,1717965584008,ECG,0.48054546288815664
11,1717965584008,ECG,-0.5054393990369377
18,1717965584009,ECG,0.5186596922541113
44,1717965584009,ECG,0.5109074158888214
30,1717965584009,ECG,0.05465413461068981
41,1717965584010,ECG,-0.08415082233803124
31,1717965584010,ECG,0.21972120246137353
16,1717965584010,ECG,-0.5073327149485739
22,1717965584008,ECG,-0.33440243638022454
24,1717965584010,ECG,-0.3224995174881352
1,1717965584010,ECG,0.2416411979878304
2,1717965584013,ECG,-0.5480847016405652
40,1717965584013,ECG,0.2895237709211483
48,1717965584011,ECG,-0.30968446762310337
12,1717965584014,ECG,-0.46433072406609094
33,1717965584012,ECG,-0.4100402401460385
35,1717965584014,ECG,0.30787808044815707
29,1717965584015,ECG,0.7451157806936476
38,1717965584016,ECG,-0.5866917000412754
17,1717965584016,ECG,-0.43860163858695084
8,1717965584017,ECG,-0.19817862937293754
21,1717965584017,ECG,-0.35111153192768446
14,1717965584018,ECG,-0.08836545020618183
47,1717965584019,ECG,-0.12528200949966406
5,1717965584019,ECG,0.5061017376055363
9,1717965584020,ECG,0.47172020781593665
50,1717965584020,ECG,-0.5663302814884211
34,1717965584020,ECG,0.4466158871128924
43,1717965584021,ECG,-0.32504405739517045
25,1717965584021,ECG,-0.6035018143150092
13,1717965584021,ECG,-0.2418347708401244
39,1717965584023,ECG,-0.22701327638017846
49,1717965584998,ECG,0.14222187524090993
7,1717965584999,ECG,0.7455845812924963
23,1717965584999,ECG,0.3151769124610799
27,1717965584999,ECG,0.3913554897802557
32,1717965584999,ECG,0.5551642189266274
45,1717965585000,ECG,0.7214991029997446
10,1717965585000,ECG,-0.35150619798463995
19,1717965585000,ECG,-0.410244502489913
46,1717965585000,ECG,-0.531279216936849
26,1717965585000,ECG,0.20833141337108485
4,1717965585001,ECG,0.23015297005858476
20,1717965585001,ECG,0.4226841522841417
15,1717965585001,ECG,-0.125644126881875
28,1717965585002,ECG,-0.3338557979527801
3,1717965585001,ECG,0.25168126307947664
42,1717965585002,ECG,0.3406838433356604
37,1717965585002,ECG,-0.3156786683829113
36,1717965585003,ECG,-0.1852045279285791
6,1717965585003,ECG,-0.05777462144204325
18,1717965585004,ECG,-0.5470495127561026
11,1717965585004,ECG,0.6813825790687665
22,1717965585004,ECG,-0.2273798922290697
44,1717965585007,ECG,-0.5373625082876664
30,1717965585008,ECG,0.15108759011742173
31,1717965585008,ECG,-0.5967219848900821
41,1717965585008,ECG,-0.3389056968495988
16,1717965585008,ECG,0.5641202363767949
1,1717965585008,ECG,-0.22912463610808687
24,1717965585008,ECG,0.09441989659188513
48,1717965585011,ECG,0.37727171726855807
33,1717965585011,ECG,0.4968176789227484
2,1717965585011,ECG,-0.32370049318916455
40,1717965585012,ECG,-0.5896762612632379
12,1717965585014,ECG,0.5284923125225754
35,1717965585014,ECG,-0.1529323385428817
29,1717965585015,ECG,-0.2945035559826202
38,1717965585015,ECG,-0.20575799851389925
17,1717965585016,ECG,0.7692537433190222
8,1717965585016,ECG,0.7706470812075812
21,1717965585017,ECG,0.5092702073768993
14,1717965585018,ECG,0.6210417927269462
47,1717965585018,ECG,0.1192731463904057
5,1717965585019,ECG,0.284437964085147
9,1717965585019,ECG,-0.10364080640032589
50,1717965585019,ECG,0.3860054610148018
34,1717965585020,ECG,-0.2935534335429102
43,1717965585020,ECG,0.29694445890005305
25,1717965585021,ECG,-0.34605897858492907
13,1717965585021,ECG,0.5486371386271812
39,1717965585022,ECG,-0.23251694462726982
49,1717965586002,ECG,0.15489963657641984
7,1717965586003,ECG,-0.31756447946257643
23,1717965586003,ECG,0.4295976622294233
27,1717965586003,ECG,-0.28608796777456025
45,1717965586003,ECG,0.19689278622913875
26,1717965586003,ECG,-0.04115004139446406
10,1717965586003,ECG,-0.4305171081571656
19,1717965586003,ECG,-0.3200689245444106
46,1717965586004,ECG,-0.302129805892242
4,1717965586004,ECG,-0.3065056667758368
20,1717965586004,ECG,0.1232553785370949
32,1717965586003,ECG,-0.3212152520835892
3,1717965586004,ECG,0.5147558589235022
15,1717965586004,ECG,0.4993502380408218
42,1717965586005,ECG,0.12026311010592086
28,1717965586004,ECG,0.2666472927751613
37,1717965586005,ECG,0.27191059979175597
6,1717965586005,ECG,0.4422478088149703
36,1717965586005,ECG,-0.48715980856931956
11,1717965586005,ECG,-0.13844681750754104
18,1717965586006,ECG,0.2940892741933739
22,1717965586005,ECG,-0.5858316409324785
44,1717965586007,ECG,0.7231764353864883
30,1717965586007,ECG,0.1953908330097735
41,1717965586007,ECG,-0.5040996301102082
31,1717965586008,ECG,0.5175614448772499
16,1717965586008,ECG,0.7501982943334462
1,1717965586009,ECG,0.19253455158055793
24,1717965586009,ECG,-0.2654669439201547
48,1717965586009,ECG,0.26943799764282317
33,1717965586009,ECG,0.06382576146609273
2,1717965586010,ECG,-0.10906416787686997
40,1717965586010,ECG,0.7672791081112075
12,1717965586015,ECG,0.08661989163121175
35,1717965586015,ECG,-0.35585501917045037
29,1717965586015,ECG,-0.1610928278728808
38,1717965586016,ECG,0.09815041001494523
17,1717965586016,ECG,0.0016925056613658687
8,1717965586017,ECG,0.3405153098669104
21,1717965586018,ECG,-0.12111072889145269
14,1717965586018,ECG,-0.44989493281591986
47,1717965586018,ECG,0.7120325356126979
5,1717965586019,ECG,0.7116661689135991
9,1717965586020,ECG,0.7547279889371733
50,1717965586021,ECG,0.44232788625756647
34,1717965586021,ECG,-0.5851215862711476
43,1717965586023,ECG,0.30350390635897956
25,1717965586023,ECG,-0.3806724479019399
13,1717965586023,ECG,0.5027230094304527
39,1717965586023,ECG,0.5142426492560612
49,1717965587002,ECG,0.2865528938339927
23,1717965587002,ECG,-0.5558256557582972
27,1717965587002,ECG,0.3753961048115747
7,1717965587002,ECG,-0.2839804462406005
32,1717965587003,ECG,-0.2712089910892732
45,1717965587003,ECG,0.7020805914752144
26,1717965587003,ECG,0.6740122956984647
10,1717965587003,ECG,0.0983176744957982
19,1717965587003,ECG,-0.3669257137832464
20,1717965587003,ECG,-0.5452971025763265
4,1717965587003,ECG,0.4885060397945968
46,1717965587003,ECG,0.4077960299113347
15,1717965587003,ECG,-0.33898621160579
28,1717965587004,ECG,-0.33855796290122575
42,1717965587004,ECG,-0.17449317003972817
6,1717965587004,ECG,-0.021743196239424313
36,1717965587004,ECG,-0.3474912175191479
11,1717965587004,ECG,0.24894511591851023
22,1717965587004,ECG,0.7304508976937972
18,1717965587004,ECG,0.4710991261036004
3,1717965587003,ECG,-0.5167148977734584
37,1717965587004,ECG,0.2323194349137464
44,1717965587008,ECG,0.045811519754781135
30,1717965587008,ECG,-0.07483797462035843
31,1717965587008,ECG,-0.4520515685014342
41,1717965587008,ECG,0.5752870273108214
16,1717965587008,ECG,-0.1302234571778042
24,1717965587008,ECG,-0.2964833947025515
1,1717965587008,ECG,-0.48791624035284037
48,1717965587009,ECG,-0.51008119870063
33,1717965587009,ECG,0.17393463086544536
2,1717965587010,ECG,0.5318809748413208
40,1717965587010,ECG,-0.20648502177850395
12,1717965587015,ECG,-0.00178825680311712
